# E(MeV)  S_GAMTGAMT(Total=K0+2*K1) for _U297_DDPCX
-15.64440000 8.98658000e-03
-15.61440000 8.97978000e-03
-15.58440000 8.99087000e-03
-15.55440000 9.01294000e-03
-15.52440000 9.04025000e-03
-15.49440000 9.07030000e-03
-15.46440000 9.10193000e-03
-15.43440000 9.13461000e-03
-15.40440000 9.16809000e-03
-15.37440000 9.20220000e-03
-15.34440000 9.23691000e-03
-15.31440000 9.27214000e-03
-15.28440000 9.30793000e-03
-15.25440000 9.34426000e-03
-15.22440000 9.38114000e-03
-15.19440000 9.41860000e-03
-15.16440000 9.45665000e-03
-15.13440000 9.49536000e-03
-15.10440000 9.53476000e-03
-15.07440000 9.57490000e-03
-15.04440000 9.61588000e-03
-15.01440000 9.65776000e-03
-14.98440000 9.70060000e-03
-14.95440000 9.74455000e-03
-14.92440000 9.78970000e-03
-14.89440000 9.83628000e-03
-14.86440000 9.88447000e-03
-14.83440000 9.93460000e-03
-14.80440000 9.98706000e-03
-14.77440000 1.00425100e-02
-14.74440000 1.01019500e-02
-14.71440000 1.01670700e-02
-14.68440000 1.02411200e-02
-14.65440000 1.03305900e-02
-14.62440000 1.04500300e-02
-14.59440000 1.06304600e-02
-14.56440000 1.08927400e-02
-14.53440000 1.10274200e-02
-14.50440000 1.09181400e-02
-14.47440000 1.08533500e-02
-14.44440000 1.08690400e-02
-14.41440000 1.09304400e-02
-14.38440000 1.10203600e-02
-14.35440000 1.11335700e-02
-14.32440000 1.12709500e-02
-14.29440000 1.14380100e-02
-14.26440000 1.16458300e-02
-14.23440000 1.19149500e-02
-14.20440000 1.22848300e-02
-14.17440000 1.28372700e-02
-14.14440000 1.37540800e-02
-14.11440000 1.54153200e-02
-14.08440000 1.79719300e-02
-14.05440000 1.87347200e-02
-13.99880000 1.60608500e-02
-13.96880000 1.59763000e-02
-13.93880000 1.66990400e-02
-13.90880000 1.82443500e-02
-13.87880000 2.09100100e-02
-13.84880000 2.57244600e-02
-13.81880000 3.40222600e-02
-13.78880000 4.34388000e-02
-13.75880000 4.96774000e-02
-13.72880000 6.14017000e-02
-13.69880000 6.39448000e-02
-13.66880000 4.84834900e-02
-13.63880000 3.86566000e-02
-13.60880000 3.64921000e-02
-13.57880000 4.01652000e-02
-13.54880000 5.30267000e-02
-13.51880000 7.81531000e-02
-13.48880000 9.22326000e-02
-13.45880000 7.08119000e-02
-13.42880000 4.98171000e-02
-13.39880000 3.66996000e-02
-13.36880000 2.86562500e-02
-13.33880000 2.47662700e-02
-13.30880000 2.35137200e-02
-13.27880000 2.46647200e-02
-13.24880000 2.82778200e-02
-13.21880000 2.96787800e-02
-13.18880000 2.50359400e-02
-13.15880000 2.16118300e-02
-13.12880000 2.03566100e-02
-13.09880000 1.89009500e-02
-13.06880000 1.74694000e-02
-13.03880000 1.65342100e-02
-13.00880000 1.60398500e-02
-12.97880000 1.59480500e-02
-12.94880000 1.62272800e-02
-12.91880000 1.69471300e-02
-12.88880000 1.79723400e-02
-12.85880000 1.89232700e-02
-12.82880000 2.06541000e-02
-12.79880000 2.40288800e-02
-12.76880000 2.70161400e-02
-12.73880000 2.87859800e-02
-12.70880000 3.14231600e-02
-12.67880000 3.01980800e-02
-12.64880000 2.76747400e-02
-12.61880000 2.75627000e-02
-12.58880000 2.78496600e-02
-12.55880000 2.82105600e-02
-12.52880000 3.07274000e-02
-12.49880000 3.22215600e-02
-12.46880000 3.45108000e-02
-12.43880000 3.93705000e-02
-12.40880000 4.47635000e-02
-12.35310000 6.14950200e-02
-12.32310000 6.61872200e-02
-12.29310000 5.04228100e-02
-12.26310000 3.78160700e-02
-12.23310000 3.29321400e-02
-12.20310000 3.24889600e-02
-12.17310000 3.51461000e-02
-12.14310000 3.48287200e-02
-12.11310000 3.15165800e-02
-12.08310000 3.08922100e-02
-12.05310000 3.24765000e-02
-12.02310000 3.62726300e-02
-11.99310000 4.37280000e-02
-11.96310000 5.63224700e-02
-11.93310000 6.28654600e-02
-11.90310000 5.46882800e-02
-11.87310000 4.93754200e-02
-11.84310000 4.61260300e-02
-11.81310000 4.25839700e-02
-11.78310000 4.16992300e-02
-11.75310000 4.80263200e-02
-11.72310000 5.29662300e-02
-11.69310000 4.49768200e-02
-11.66310000 3.46720100e-02
-11.63310000 2.86636700e-02
-11.60310000 2.59165200e-02
-11.57310000 2.53410300e-02
-11.54310000 2.66404700e-02
-11.51310000 2.95228600e-02
-11.48310000 3.35179000e-02
-11.45310000 3.98749000e-02
-11.42310000 4.60208000e-02
-11.39310000 5.01512000e-02
-11.36310000 5.36361000e-02
-11.33310000 5.07147000e-02
-11.30310000 4.09658800e-02
-11.27310000 3.61027800e-02
-11.24310000 3.46178000e-02
-11.21310000 3.38338000e-02
-11.18310000 3.56960400e-02
-11.15310000 4.16908600e-02
-11.12310000 4.68377000e-02
-11.09310000 4.70620000e-02
-11.06310000 4.87240000e-02
-11.03310000 5.01759000e-02
-11.00310000 5.49123000e-02
-10.97310000 6.79393000e-02
-10.94310000 7.43733000e-02
-10.91310000 6.09481000e-02
-10.88310000 4.74223000e-02
-10.85310000 4.06478000e-02
-10.82310000 3.68885000e-02
-10.79310000 3.28195000e-02
-10.76310000 3.04015600e-02
-10.70740000 2.91449600e-02
-10.67740000 2.89955000e-02
-10.64740000 2.95197000e-02
-10.61740000 3.14794400e-02
-10.58740000 3.44705600e-02
-10.55740000 3.66186100e-02
-10.52740000 4.07310600e-02
-10.49740000 4.67633900e-02
-10.46740000 5.37134000e-02
-10.43740000 5.74988200e-02
-10.40740000 4.72984100e-02
-10.37740000 3.75189400e-02
-10.34740000 3.25571000e-02
-10.31740000 3.03438800e-02
-10.28740000 3.05855900e-02
-10.25740000 3.29535200e-02
-10.22740000 3.27845800e-02
-10.19740000 2.88967000e-02
-10.16740000 2.63516000e-02
-10.13740000 2.54735200e-02
-10.10740000 2.57192200e-02
-10.07740000 2.69415000e-02
-10.04740000 2.71278600e-02
-10.01740000 2.64060200e-02
-9.98741000 2.60617800e-02
-9.95741000 2.63115000e-02
-9.92741000 2.68611600e-02
-9.89741000 2.76192100e-02
-9.86741000 2.82387500e-02
-9.83741000 3.01503000e-02
-9.80741000 3.45789000e-02
-9.77741000 4.07270000e-02
-9.74741000 4.57855000e-02
-9.71741000 4.92763000e-02
-9.68741000 5.15295000e-02
-9.65741000 4.80510000e-02
-9.62741000 4.66742000e-02
-9.59741000 4.85153000e-02
-9.56741000 4.96546000e-02
-9.53741000 4.55896000e-02
-9.50741000 4.30745000e-02
-9.47741000 4.19300000e-02
-9.44741000 4.23432000e-02
-9.41741000 4.39896000e-02
-9.38741000 4.23629000e-02
-9.35741000 4.17942000e-02
-9.32741000 4.47295000e-02
-9.29741000 4.96633000e-02
-9.26741000 5.69205000e-02
-9.23741000 6.08266000e-02
-9.20741000 6.34324000e-02
-9.17741000 7.46313000e-02
-9.14741000 8.86387000e-02
-9.11741000 8.73042000e-02
-9.06174000 7.77067000e-02
-9.03174000 8.71458000e-02
-9.00174000 1.05481500e-01
-8.97174000 1.28654000e-01
-8.94174000 1.19731200e-01
-8.91174000 8.92706000e-02
-8.88174000 6.89344000e-02
-8.85174000 5.65968000e-02
-8.82174000 5.09902000e-02
-8.79174000 5.13023000e-02
-8.76174000 5.66459000e-02
-8.73174000 6.51751000e-02
-8.70174000 7.34389000e-02
-8.67174000 7.55873000e-02
-8.64174000 6.87012000e-02
-8.61174000 6.17523000e-02
-8.58174000 6.11384000e-02
-8.55174000 7.02989000e-02
-8.52174000 8.46298000e-02
-8.49174000 8.75386000e-02
-8.46174000 8.00520000e-02
-8.43174000 6.99338000e-02
-8.40174000 6.75630000e-02
-8.37174000 7.40122000e-02
-8.34174000 9.09338000e-02
-8.31174000 1.26962100e-01
-8.28174000 1.93126000e-01
-8.25174000 2.43516000e-01
-8.22174000 2.17984400e-01
-8.19174000 1.62109600e-01
-8.16174000 1.17958300e-01
-8.13174000 9.28638000e-02
-8.10174000 8.16576000e-02
-8.07174000 8.24611000e-02
-8.04174000 8.83282000e-02
-8.01174000 8.96710000e-02
-7.98174000 9.05510000e-02
-7.95174000 8.83210000e-02
-7.92174000 9.40510000e-02
-7.89174000 1.03072800e-01
-7.86174000 1.01129700e-01
-7.83174000 9.67607000e-02
-7.80174000 1.00869100e-01
-7.77174000 1.11739600e-01
-7.74174000 1.15467600e-01
-7.71174000 1.08221700e-01
-7.68174000 9.53633000e-02
-7.65174000 8.38895000e-02
-7.62174000 8.12613000e-02
-7.59174000 8.63054000e-02
-7.56174000 1.01915500e-01
-7.53174000 1.28842800e-01
-7.50174000 1.60651000e-01
-7.47174000 1.96657400e-01
-7.41607000 2.46273900e-01
-7.38607000 2.00633400e-01
-7.35607000 1.52626100e-01
-7.32607000 1.36803000e-01
-7.29607000 1.51537000e-01
-7.26607000 1.80366300e-01
-7.23607000 1.73243300e-01
-7.20607000 1.35326800e-01
-7.17607000 1.04598100e-01
-7.14607000 9.08624000e-02
-7.11607000 8.76249000e-02
-7.08607000 8.47591000e-02
-7.05607000 8.49599000e-02
-7.02607000 9.10868000e-02
-6.99607000 1.04598200e-01
-6.96607000 1.33797700e-01
-6.93607000 1.79745900e-01
-6.90607000 2.33434400e-01
-6.87607000 2.73812600e-01
-6.84607000 2.28276600e-01
-6.81607000 1.65935000e-01
-6.78607000 1.25018000e-01
-6.75607000 1.03213000e-01
-6.72607000 9.46045000e-02
-6.69607000 9.27617000e-02
-6.66607000 9.69351000e-02
-6.63607000 1.11200000e-01
-6.60607000 1.39124500e-01
-6.57607000 1.72549200e-01
-6.54607000 1.98973400e-01
-6.51607000 2.31382000e-01
-6.48607000 2.41678800e-01
-6.45607000 2.38544400e-01
-6.42607000 2.10975400e-01
-6.39607000 1.65536600e-01
-6.36607000 1.40100200e-01
-6.33607000 1.28640100e-01
-6.30607000 1.22964200e-01
-6.27607000 1.22464200e-01
-6.24607000 1.25714600e-01
-6.21607000 1.35487800e-01
-6.18607000 1.61131400e-01
-6.15607000 2.14422800e-01
-6.12607000 2.88958300e-01
-6.09607000 3.35735000e-01
-6.06607000 3.25409000e-01
-6.03607000 3.15161900e-01
-6.00607000 3.00325700e-01
-5.97607000 2.68185300e-01
-5.94607000 2.20514900e-01
-5.91607000 1.95092400e-01
-5.88607000 1.85101200e-01
-5.85607000 1.85974000e-01
-5.82607000 1.86130700e-01
-5.77041000 1.78933200e-01
-5.74041000 1.99143400e-01
-5.71041000 2.15220600e-01
-5.68041000 2.21444200e-01
-5.65041000 2.51250200e-01
-5.62041000 3.18674000e-01
-5.59041000 4.03279800e-01
-5.56041000 4.50699600e-01
-5.53041000 5.07914000e-01
-5.50041000 6.63670800e-01
-5.47041000 8.74674200e-01
-5.44041000 9.30857000e-01
-5.41041000 8.30655000e-01
-5.38041000 8.08953000e-01
-5.35041000 7.69642000e-01
-5.32041000 6.63471000e-01
-5.29041000 5.42314000e-01
-5.26041000 4.87021200e-01
-5.23041000 4.69657200e-01
-5.20041000 4.90109000e-01
-5.17041000 5.45240800e-01
-5.14041000 6.83954600e-01
-5.11041000 9.80684000e-01
-5.08041000 1.50903780e+00
-5.05041000 2.04700740e+00
-5.02041000 1.67295800e+00
-4.99041000 1.03668660e+00
-4.96041000 6.96602000e-01
-4.93041000 5.57143400e-01
-4.90041000 5.46856000e-01
-4.87041000 6.34219000e-01
-4.84041000 6.83984000e-01
-4.81041000 5.47461000e-01
-4.78041000 4.16899000e-01
-4.75041000 3.60865000e-01
-4.72041000 3.43581200e-01
-4.69041000 3.51236600e-01
-4.66041000 3.85136600e-01
-4.63041000 3.98368600e-01
-4.60041000 3.62838000e-01
-4.57041000 3.52912800e-01
-4.54041000 3.89780600e-01
-4.51041000 4.78569000e-01
-4.48041000 6.13057000e-01
-4.45041000 7.59399000e-01
-4.42041000 8.70931000e-01
-4.39041000 7.82596000e-01
-4.36041000 6.85123000e-01
-4.33041000 7.09345000e-01
-4.30041000 8.30047000e-01
-4.27041000 1.07790900e+00
-4.24041000 1.30706400e+00
-4.21041000 1.29771200e+00
-4.18041000 1.43319600e+00
-4.12474000 2.25435000e+00
-4.09474000 2.43485400e+00
-4.06474000 2.14609400e+00
-4.03474000 2.28109600e+00
-4.00474000 3.13429000e+00
-3.97474000 3.89462400e+00
-3.94474000 3.01838800e+00
-3.91474000 2.01374400e+00
-3.88474000 1.56760200e+00
-3.85474000 1.51636300e+00
-3.82474000 1.78463800e+00
-3.79474000 2.20138600e+00
-3.76474000 2.14134300e+00
-3.73474000 1.90417700e+00
-3.70474000 1.94081100e+00
-3.67474000 2.32354800e+00
-3.64474000 3.19445100e+00
-3.61474000 4.51432500e+00
-3.58474000 5.68553500e+00
-3.55474000 5.84281000e+00
-3.52474000 4.31907700e+00
-3.49474000 2.95081600e+00
-3.46474000 2.29250800e+00
-3.43474000 2.14999600e+00
-3.40474000 2.36197300e+00
-3.37474000 2.78050800e+00
-3.34474000 3.55455100e+00
-3.31474000 4.97050000e+00
-3.28474000 7.28337000e+00
-3.25474000 9.84205000e+00
-3.22474000 9.34460000e+00
-3.19474000 6.97885000e+00
-3.16474000 5.21710000e+00
-3.13474000 4.33350000e+00
-3.10474000 3.63797600e+00
-3.07474000 2.68281800e+00
-3.04474000 2.09521600e+00
-3.01474000 1.92560500e+00
-2.98474000 2.11497600e+00
-2.95474000 2.78082500e+00
-2.92474000 3.65297100e+00
-2.89474000 3.43289200e+00
-2.86474000 2.65814700e+00
-2.83474000 2.03395400e+00
-2.80474000 1.70839300e+00
-2.77474000 1.62722900e+00
-2.74474000 1.76963000e+00
-2.71474000 2.20853300e+00
-2.68474000 3.14690800e+00
-2.65474000 4.80372000e+00
-2.62474000 6.96315700e+00
-2.59474000 8.82870000e+00
-2.56474000 8.24714000e+00
-2.53474000 6.62387000e+00
-2.47907000 3.44506800e+00
-2.44907000 2.67062400e+00
-2.41907000 2.47144600e+00
-2.38907000 2.42068300e+00
-2.35907000 2.27970100e+00
-2.32907000 2.26321300e+00
-2.29907000 2.35535900e+00
-2.26907000 2.46837000e+00
-2.23907000 2.36115100e+00
-2.20907000 2.01030500e+00
-2.17907000 1.54925400e+00
-2.14907000 1.21630000e+00
-2.11907000 1.10430400e+00
-2.08907000 1.12093500e+00
-2.05907000 1.11656100e+00
-2.02907000 1.15798900e+00
-1.99907000 1.36416800e+00
-1.96907000 1.82685700e+00
-1.93907000 2.56230800e+00
-1.90907000 2.96276300e+00
-1.87907000 2.73423100e+00
-1.84907000 2.78588700e+00
-1.81907000 3.65038100e+00
-1.78907000 5.52310300e+00
-1.75907000 7.42621400e+00
-1.72907000 6.14536500e+00
-1.69907000 3.95490600e+00
-1.66907000 2.67273300e+00
-1.63907000 1.91832390e+00
-1.60907000 1.40195570e+00
-1.57907000 1.09416090e+00
-1.54907000 9.22584500e-01
-1.51907000 8.49562600e-01
-1.48907000 8.55109000e-01
-1.45907000 9.08161000e-01
-1.42907000 9.77713000e-01
-1.39907000 9.62581000e-01
-1.36907000 8.87337000e-01
-1.33907000 8.39487000e-01
-1.30907000 9.06221000e-01
-1.27907000 1.14568900e+00
-1.24907000 1.44964700e+00
-1.21907000 1.46834900e+00
-1.18907000 1.20454000e+00
-1.15907000 9.99229000e-01
-1.12907000 9.47564000e-01
-1.09907000 9.67261000e-01
-1.06907000 9.94952000e-01
-1.03907000 1.08701500e+00
-1.00907000 1.34622800e+00
-0.97906800 1.90160100e+00
-0.94906800 2.91703300e+00
-0.91906800 3.91172900e+00
-0.88906800 4.41419200e+00
-0.83339900 4.75663800e+00
-0.80339900 3.36843900e+00
-0.77339900 2.44859100e+00
-0.74339900 1.82188600e+00
-0.71339900 1.43425700e+00
-0.68339900 1.17542600e+00
-0.65339900 9.66959000e-01
-0.62339900 8.70922000e-01
-0.59339900 8.75579000e-01
-0.56339900 9.66223000e-01
-0.53339900 1.03501600e+00
-0.50339900 9.59471000e-01
-0.47339900 9.26991000e-01
-0.44339900 9.67465000e-01
-0.41339900 1.02521100e+00
-0.38339900 1.00108900e+00
-0.35339900 9.52840000e-01
-0.32339900 9.39240000e-01
-0.29339900 1.00636500e+00
-0.26339900 1.16622400e+00
-0.23339900 1.21998000e+00
-0.20339900 1.12447700e+00
-0.17339900 1.00715000e+00
-0.14339900 9.54000000e-01
-0.11339900 1.01843800e+00
-0.08339900 1.10019900e+00
-0.05339900 1.19460300e+00
-0.02339900 1.27820900e+00
0.00660104 1.25364200e+00
0.03660100 1.24859600e+00
0.06660100 1.42939500e+00
0.09660100 1.64109000e+00
0.12660100 1.66171600e+00
0.15660100 1.80152300e+00
0.18660100 1.79688800e+00
0.21660100 1.52184900e+00
0.24660100 1.40724300e+00
0.27660100 1.49374100e+00
0.30660100 1.67043400e+00
0.33660100 1.61789200e+00
0.36660100 1.52882200e+00
0.39660100 1.54760400e+00
0.42660100 1.66352900e+00
0.45660100 2.00763800e+00
0.48660100 2.42570400e+00
0.51660100 2.64420400e+00
0.54660100 2.69109800e+00
0.57660100 2.85685200e+00
0.60660100 3.18367400e+00
0.63660100 3.45489000e+00
0.66660100 3.96724100e+00
0.69660100 4.46527500e+00
0.72660100 3.92957800e+00
0.75660100 3.15699700e+00
