# E(MeV)  S_GAMTGAMT(Total=K0+2*K1) for _Y109_DDPCX
-12.99140000 8.19740000e-03
-12.96140000 8.25812000e-03
-12.93140000 8.31976000e-03
-12.90140000 8.38227000e-03
-12.87140000 8.44574000e-03
-12.84140000 8.51013000e-03
-12.81140000 8.57549000e-03
-12.78140000 8.64185000e-03
-12.75140000 8.70922000e-03
-12.72140000 8.77765000e-03
-12.69140000 8.84713000e-03
-12.66140000 8.91773000e-03
-12.63140000 8.98944000e-03
-12.60140000 9.06230000e-03
-12.57140000 9.13634000e-03
-12.54140000 9.21161000e-03
-12.51140000 9.28812000e-03
-12.48140000 9.36589000e-03
-12.45140000 9.44499000e-03
-12.42140000 9.52543000e-03
-12.39140000 9.60727000e-03
-12.36140000 9.69052000e-03
-12.33140000 9.77525000e-03
-12.30140000 9.86147000e-03
-12.27140000 9.94924000e-03
-12.24140000 1.00386100e-02
-12.21140000 1.01296200e-02
-12.18140000 1.02223100e-02
-12.15140000 1.03167600e-02
-12.12140000 1.04129700e-02
-12.09140000 1.05110600e-02
-12.06140000 1.06110500e-02
-12.03140000 1.07129900e-02
-12.00140000 1.08169600e-02
-11.97140000 1.09230200e-02
-11.94140000 1.10312300e-02
-11.91140000 1.11416800e-02
-11.88140000 1.12544300e-02
-11.85140000 1.13695700e-02
-11.82140000 1.14871700e-02
-11.79140000 1.16073200e-02
-11.76140000 1.17301200e-02
-11.73140000 1.18556200e-02
-11.70140000 1.19839700e-02
-11.67140000 1.21152400e-02
-11.64140000 1.22495600e-02
-11.61110000 1.23887500e-02
-11.58110000 1.25295600e-02
-11.55110000 1.26737500e-02
-11.52110000 1.28214800e-02
-11.49110000 1.29729000e-02
-11.46110000 1.31281300e-02
-11.43110000 1.32873500e-02
-11.40110000 1.34507200e-02
-11.37110000 1.36184300e-02
-11.34110000 1.37906300e-02
-11.31110000 1.39675600e-02
-11.28110000 1.41494100e-02
-11.25110000 1.43364000e-02
-11.22110000 1.45287800e-02
-11.19110000 1.47267800e-02
-11.16110000 1.49307200e-02
-11.13110000 1.51408300e-02
-11.10110000 1.53574300e-02
-11.07110000 1.55808900e-02
-11.04110000 1.58115300e-02
-11.01110000 1.60497500e-02
-10.98110000 1.62959500e-02
-10.95110000 1.65505600e-02
-10.92110000 1.68140800e-02
-10.89110000 1.70870200e-02
-10.86110000 1.73699200e-02
-10.83110000 1.76634000e-02
-10.80110000 1.79681100e-02
-10.77110000 1.82848000e-02
-10.74110000 1.86142100e-02
-10.71110000 1.89572200e-02
-10.68110000 1.93147700e-02
-10.65110000 1.96879000e-02
-10.62110000 2.00777500e-02
-10.59110000 2.04856000e-02
-10.56110000 2.09128600e-02
-10.53110000 2.13610800e-02
-10.50110000 2.18320200e-02
-10.47110000 2.23276900e-02
-10.44110000 2.28502700e-02
-10.41110000 2.34022900e-02
-10.38110000 2.39866400e-02
-10.35110000 2.46065600e-02
-10.32110000 2.52658500e-02
-10.29110000 2.59688400e-02
-10.26110000 2.67206200e-02
-10.23070000 2.75374000e-02
-10.20070000 2.84064300e-02
-10.17070000 2.93457800e-02
-10.14070000 3.03651300e-02
-10.11070000 3.14770600e-02
-10.08070000 3.26959700e-02
-10.05070000 3.40403600e-02
-10.02070000 3.55333900e-02
-9.99069000 3.72039100e-02
-9.96069000 3.90892900e-02
-9.93069000 4.12385800e-02
-9.90069000 4.37170000e-02
-9.87069000 4.66125300e-02
-9.84069000 5.00477000e-02
-9.81069000 5.41971000e-02
-9.78069000 5.93156000e-02
-9.75069000 6.57892000e-02
-9.72069000 7.42247000e-02
-9.69069000 8.56191000e-02
-9.66069000 1.01698800e-01
-9.63069000 1.25644700e-01
-9.60069000 1.63756200e-01
-9.57069000 2.29534100e-01
-9.54069000 3.53707200e-01
-9.51069000 5.99317600e-01
-9.48069000 9.66841900e-01
-9.45069000 9.74934600e-01
-9.42069000 6.13627600e-01
-9.39069000 3.71168500e-01
-9.36069000 2.51704100e-01
-9.33069000 1.91806900e-01
-9.30069000 1.60463000e-01
-9.27069000 1.44182900e-01
-9.24069000 1.36858800e-01
-9.21069000 1.35663800e-01
-9.18069000 1.39456000e-01
-9.15069000 1.48240700e-01
-9.12069000 1.63285500e-01
-9.09069000 1.88005600e-01
-9.06069000 2.29001500e-01
-9.03069000 2.83451200e-01
-9.00069000 3.12435200e-01
-8.97069000 3.40660000e-01
-8.94069000 4.11763000e-01
-8.91069000 5.25378000e-01
-8.88069000 7.09032000e-01
-8.85032000 1.06318800e+00
-8.82032000 1.45509800e+00
-8.79032000 1.48262000e+00
-8.76032000 1.61742200e+00
-8.73032000 2.29709100e+00
-8.70032000 3.51674500e+00
-8.67032000 3.87031900e+00
-8.64032000 3.30224800e+00
-8.61032000 3.36162000e+00
-8.58032000 3.11253300e+00
-8.55032000 2.26259600e+00
-8.52032000 1.60857200e+00
-8.49032000 1.07978200e+00
-8.46032000 7.70717000e-01
-8.43032000 6.15326000e-01
-8.40032000 5.48717000e-01
-8.37032000 5.48194000e-01
-8.34032000 6.23235000e-01
-8.31032000 8.04195000e-01
-8.28032000 1.01558700e+00
-8.25032000 1.10471200e+00
-8.22032000 1.08483800e+00
-8.19032000 1.02090100e+00
-8.16032000 1.15708400e+00
-8.13032000 1.61381100e+00
-8.10032000 2.63300550e+00
-8.07032000 4.32517520e+00
-8.04032000 4.78466620e+00
-8.01032000 3.39584630e+00
-7.98032000 2.13694260e+00
-7.95032000 1.31523870e+00
-7.92032000 8.75611400e-01
-7.89032000 6.41241300e-01
-7.86032000 5.12014800e-01
-7.83032000 4.45299100e-01
-7.80032000 4.28856500e-01
-7.77032000 4.71337000e-01
-7.74032000 5.56105000e-01
-7.71032000 5.20399000e-01
-7.68032000 4.00023500e-01
-7.65032000 3.27574300e-01
-7.62032000 2.95699500e-01
-7.59032000 2.86330700e-01
-7.56032000 2.91801300e-01
-7.53032000 3.10354200e-01
-7.50032000 3.44063900e-01
-7.46995000 4.00313400e-01
-7.43995000 4.92264200e-01
-7.40995000 6.46180300e-01
-7.37995000 8.65275000e-01
-7.34995000 1.12935890e+00
-7.31995000 1.65096900e+00
-7.28995000 2.69033700e+00
-7.25995000 3.62751900e+00
-7.22995000 3.01292700e+00
-7.19995000 2.35575800e+00
-7.16995000 2.48924100e+00
-7.13995000 2.94742200e+00
-7.10995000 2.62267300e+00
-7.07995000 2.26499800e+00
-7.04995000 2.43764600e+00
-7.01995000 2.94893600e+00
-6.98995000 2.53169400e+00
-6.95995000 1.63002400e+00
-6.92995000 1.10835300e+00
-6.89995000 8.68687000e-01
-6.86995000 7.82830000e-01
-6.83995000 7.97638000e-01
-6.80995000 8.79124000e-01
-6.77995000 1.04607100e+00
-6.74995000 1.40392600e+00
-6.71995000 1.92033200e+00
-6.68995000 2.02707800e+00
-6.65995000 2.02900900e+00
-6.62995000 2.55794800e+00
-6.59995000 3.40824600e+00
-6.56995000 3.54495200e+00
-6.53995000 3.33858100e+00
-6.50995000 2.97875200e+00
-6.47995000 3.04971400e+00
-6.44995000 4.14518400e+00
-6.41995000 6.16815400e+00
-6.38995000 6.57843200e+00
-6.35995000 4.59376600e+00
-6.32995000 2.78754000e+00
-6.29995000 1.84379400e+00
-6.26995000 1.39276000e+00
-6.23995000 1.19723000e+00
-6.20995000 1.16796000e+00
-6.17995000 1.30110000e+00
-6.14995000 1.65996400e+00
-6.11995000 2.23154600e+00
-6.08958000 2.70024300e+00
-6.05958000 3.47316300e+00
-6.02958000 4.53582000e+00
-5.99958000 4.87020000e+00
-5.96958000 5.80187800e+00
-5.93958000 7.16399800e+00
-5.90958000 5.93093600e+00
-5.87958000 4.01334800e+00
-5.84958000 3.32969200e+00
-5.81958000 3.60310000e+00
-5.78958000 3.39162100e+00
-5.75958000 2.35944700e+00
-5.72958000 1.52329200e+00
-5.69958000 1.04488100e+00
-5.66958000 7.85287000e-01
-5.63958000 6.39049000e-01
-5.60958000 5.58009000e-01
-5.57958000 5.23540000e-01
-5.54958000 5.34902000e-01
-5.51958000 6.10782800e-01
-5.48958000 7.99893000e-01
-5.45958000 1.14309500e+00
-5.42958000 1.48250600e+00
-5.39958000 1.41684500e+00
-5.36958000 1.01880600e+00
-5.33958000 6.94458000e-01
-5.30958000 5.35296000e-01
-5.27958000 4.78064800e-01
-5.24958000 4.86383000e-01
-5.21958000 5.15029000e-01
-5.18958000 5.36823200e-01
-5.15958000 6.27498600e-01
-5.12958000 8.57693000e-01
-5.09958000 1.35486100e+00
-5.06958000 2.22589480e+00
-5.03958000 2.58588120e+00
-5.00958000 1.76880340e+00
-4.97958000 1.09795120e+00
-4.94958000 7.81325000e-01
-4.91958000 6.28568000e-01
-4.88958000 5.75646000e-01
-4.85958000 6.31183000e-01
-4.82958000 8.29501000e-01
-4.79958000 1.26284700e+00
-4.76958000 1.75060800e+00
-4.73958000 1.51719950e+00
-4.70921000 9.27329900e-01
-4.67921000 5.71154900e-01
-4.64921000 3.89164400e-01
-4.61921000 2.90752400e-01
-4.58921000 2.33411400e-01
-4.55921000 1.98741600e-01
-4.52921000 1.78204700e-01
-4.49921000 1.64800500e-01
-4.46921000 1.53363800e-01
-4.43921000 1.42182500e-01
-4.40921000 1.34632700e-01
-4.37921000 1.31130100e-01
-4.34921000 1.29222700e-01
-4.31921000 1.32050600e-01
-4.28921000 1.43772800e-01
-4.25921000 1.70767200e-01
-4.22921000 2.28603500e-01
-4.19921000 3.36333800e-01
-4.16921000 4.09105500e-01
-4.13921000 3.15673400e-01
-4.10921000 2.16529700e-01
-4.07921000 1.65008300e-01
-4.04921000 1.40849800e-01
-4.01921000 1.32309100e-01
-3.98921000 1.35117600e-01
-3.95921000 1.49831000e-01
-3.92921000 1.81488200e-01
-3.89921000 2.41380400e-01
-3.86921000 3.58390400e-01
-3.83921000 4.78168400e-01
-3.80921000 3.91635700e-01
-3.77921000 2.52755600e-01
-3.74921000 1.76059000e-01
-3.71921000 1.38007100e-01
-3.68921000 1.17643700e-01
-3.65921000 1.06339600e-01
-3.62921000 1.00878600e-01
-3.59921000 9.97741000e-02
-3.56921000 1.02991800e-01
-3.53921000 1.11120700e-01
-3.50921000 1.11780000e-01
-3.47921000 1.01596100e-01
-3.44921000 9.47987000e-02
-3.41921000 9.21583000e-02
-3.38921000 9.18420000e-02
-3.35921000 9.29935000e-02
-3.32884000 9.53111000e-02
-3.29884000 9.86792000e-02
-3.26884000 1.03368200e-01
-3.23884000 1.09875300e-01
-3.20884000 1.19115400e-01
-3.17884000 1.32528600e-01
-3.14884000 1.52971800e-01
-3.11884000 1.88712300e-01
-3.08884000 2.53296500e-01
-3.05884000 3.27597500e-01
-3.02884000 3.23488900e-01
-2.99884000 3.09271600e-01
-2.96884000 3.57619900e-01
-2.93884000 4.90791300e-01
-2.90884000 6.21314900e-01
-2.87884000 5.51943000e-01
-2.84884000 4.61192000e-01
-2.81884000 4.66463000e-01
-2.78884000 5.78793000e-01
-2.75884000 6.56086000e-01
-2.72884000 5.46050000e-01
-2.69884000 4.61288000e-01
-2.66884000 4.66210000e-01
-2.63884000 5.53160000e-01
-2.60884000 6.72258000e-01
-2.57884000 7.13925000e-01
-2.54884000 8.10242000e-01
-2.51884000 1.10361000e+00
-2.48884000 1.73854800e+00
-2.45884000 2.69400200e+00
-2.42884000 2.81001400e+00
-2.39884000 2.18235100e+00
-2.36884000 1.98881700e+00
-2.33884000 2.24298200e+00
-2.30884000 2.80036000e+00
-2.27884000 2.74982400e+00
-2.24884000 1.97236900e+00
-2.21884000 1.29563700e+00
-2.18884000 9.17416000e-01
-2.15884000 7.45625000e-01
-2.12884000 6.97807000e-01
-2.09884000 7.49019000e-01
-2.06884000 9.15415000e-01
-2.03884000 1.25142600e+00
-2.00884000 1.60619200e+00
-1.97884000 1.54983800e+00
-1.94847000 1.36318100e+00
-1.91847000 1.45714700e+00
-1.88847000 1.88862600e+00
-1.85847000 2.50603000e+00
-1.82847000 2.44732600e+00
-1.79847000 1.76860600e+00
-1.76847000 1.22458700e+00
-1.73847000 9.62460000e-01
-1.70847000 8.79855000e-01
-1.67847000 9.19087000e-01
-1.64847000 1.11731600e+00
-1.61847000 1.55415700e+00
-1.58847000 2.13443600e+00
-1.55847000 2.59886600e+00
-1.52847000 2.72171600e+00
-1.49847000 2.57665900e+00
-1.46847000 2.47321600e+00
-1.43847000 2.25585700e+00
-1.40847000 1.87105600e+00
-1.37847000 1.72997100e+00
-1.34847000 1.94900100e+00
-1.31847000 2.35552200e+00
-1.28847000 2.40328300e+00
-1.25847000 2.02322700e+00
-1.22847000 1.92383800e+00
-1.19847000 2.03320900e+00
-1.16847000 2.14929800e+00
-1.13847000 2.46850200e+00
-1.10847000 2.92873800e+00
-1.07847000 3.42070000e+00
-1.04847000 4.25663000e+00
-1.01847000 6.10451000e+00
-0.98847000 9.75780000e+00
-0.95847000 1.29659700e+01
-0.92847000 1.01757300e+01
-0.89847000 6.59869000e+00
-0.86847000 4.59571000e+00
-0.83847000 3.57192000e+00
-0.80847000 3.26020100e+00
-0.77847000 2.98615500e+00
-0.74847000 2.49147600e+00
-0.71847000 2.30754100e+00
-0.68847000 2.63149300e+00
-0.65847000 3.62999800e+00
-0.62847000 4.64833300e+00
-0.59847000 4.24420100e+00
-0.56810000 3.69507700e+00
-0.53810000 3.53547100e+00
-0.50810000 3.34422300e+00
-0.47810000 3.11072900e+00
-0.44810000 3.00230900e+00
-0.41810000 3.37213300e+00
-0.38810000 3.63690200e+00
-0.35810000 3.36602000e+00
-0.32810000 3.25627200e+00
-0.29810000 3.49597800e+00
-0.26810000 3.35714800e+00
-0.23810000 2.42803400e+00
-0.20810000 1.74136900e+00
-0.17810000 1.46468200e+00
-0.14810000 1.47663000e+00
-0.11810000 1.76014000e+00
-0.08810000 2.21133100e+00
-0.05810000 2.58905000e+00
-0.02810000 3.01196200e+00
0.00190000 3.06486800e+00
0.03190000 2.82171800e+00
0.06190000 3.12448200e+00
0.09190000 3.60094000e+00
0.12190000 3.98237400e+00
0.15190000 4.57470200e+00
0.18190000 4.10193000e+00
0.21190000 2.92623200e+00
0.24190000 2.19715000e+00
0.27190000 1.91183200e+00
0.30190000 1.79949100e+00
0.33190000 1.80667100e+00
0.36190000 1.96512200e+00
0.39190000 2.05609600e+00
0.42190000 2.05951700e+00
0.45190000 2.12349500e+00
0.48190000 1.95240700e+00
0.51190000 1.78007500e+00
0.54190000 1.73466800e+00
0.57190000 1.76786900e+00
0.60190000 1.92005700e+00
0.63190000 2.10545700e+00
0.66190000 2.29805700e+00
0.69190000 2.45038400e+00
0.72190000 2.30760700e+00
0.75190000 2.05424800e+00
0.78190000 1.96074300e+00
