# E(MeV)  S_GAMTGAMT(K=1) for Am304_DDPCX
-17.11370000 9.49365000e-04
-17.08370000 1.39244000e-03
-17.05370000 1.64739000e-03
-17.02370000 1.80755000e-03
-16.99370000 1.91518000e-03
-16.96370000 1.99029000e-03
-16.93370000 2.04419000e-03
-16.90370000 2.09209000e-03
-16.87370000 2.13824000e-03
-16.84370000 2.17704000e-03
-16.81370000 2.20906000e-03
-16.78370000 2.23634000e-03
-16.75370000 2.26033000e-03
-16.72370000 2.28190000e-03
-16.69370000 2.30159000e-03
-16.66370000 2.31978000e-03
-16.63370000 2.33672000e-03
-16.60370000 2.35261000e-03
-16.57370000 2.36758000e-03
-16.54370000 2.38175000e-03
-16.51370000 2.39518000e-03
-16.48370000 2.40793000e-03
-16.45370000 2.42001000e-03
-16.42370000 2.43142000e-03
-16.39370000 2.44213000e-03
-16.36370000 2.45208000e-03
-16.33370000 2.46115000e-03
-16.30370000 2.46917000e-03
-16.27370000 2.47586000e-03
-16.24370000 2.48079000e-03
-16.21370000 2.48326000e-03
-16.18370000 2.48215000e-03
-16.15370000 2.47551000e-03
-16.12370000 2.45975000e-03
-16.09370000 2.42800000e-03
-16.06370000 2.36745000e-03
-16.03370000 2.25751000e-03
-16.00370000 2.04090000e-03
-15.97370000 1.60581000e-03
-15.94370000 1.14215000e-03
-15.91370000 1.44288000e-03
-15.88370000 1.97476000e-03
-15.85370000 2.27795000e-03
-15.82370000 2.43568000e-03
-15.79370000 2.52562000e-03
-15.76370000 2.58268000e-03
-15.73370000 2.62251000e-03
-15.70370000 2.65261000e-03
-15.67370000 2.67688000e-03
-15.64370000 2.69746000e-03
-15.61370000 2.71560000e-03
-15.58370000 2.73208000e-03
-15.55370000 2.74734000e-03
-15.52370000 2.76162000e-03
-15.49370000 2.77488000e-03
-15.46370000 2.78664000e-03
-15.43370000 2.79576000e-03
-15.40370000 2.80388000e-03
-15.37370000 2.82217000e-03
-15.32110000 2.86455000e-03
-15.29110000 2.88932000e-03
-15.26110000 2.91917000e-03
-15.23110000 2.96093000e-03
-15.20110000 3.02897000e-03
-15.17110000 3.14953000e-03
-15.14110000 3.29662000e-03
-15.11110000 3.26538000e-03
-15.08110000 3.14320000e-03
-15.05110000 3.07785000e-03
-15.02110000 3.05454000e-03
-14.99110000 3.05195000e-03
-14.96110000 3.06055000e-03
-14.93110000 3.07661000e-03
-14.90110000 3.09910000e-03
-14.87110000 3.12851000e-03
-14.84110000 3.16684000e-03
-14.81110000 3.21810000e-03
-14.78110000 3.29004000e-03
-14.75110000 3.39805000e-03
-14.72110000 3.57170000e-03
-14.69110000 3.84232000e-03
-14.66110000 4.22987000e-03
-14.63110000 4.95973000e-03
-14.60110000 6.05116000e-03
-14.57110000 6.15740000e-03
-14.54110000 5.59554000e-03
-14.51110000 5.75137000e-03
-14.48110000 5.94425000e-03
-14.45110000 5.08107000e-03
-14.42110000 4.27734000e-03
-14.39110000 3.85387000e-03
-14.36110000 3.63545000e-03
-14.33110000 3.51513000e-03
-14.30110000 3.44495000e-03
-14.27110000 3.40263000e-03
-14.24110000 3.37695000e-03
-14.21110000 3.36186000e-03
-14.18110000 3.35385000e-03
-14.15110000 3.35077000e-03
-14.12110000 3.35127000e-03
-14.09110000 3.35447000e-03
-14.06110000 3.35975000e-03
-14.03110000 3.36671000e-03
-14.00110000 3.37506000e-03
-13.97110000 3.38462000e-03
-13.94110000 3.39527000e-03
-13.91110000 3.40697000e-03
-13.88110000 3.41975000e-03
-13.85110000 3.43374000e-03
-13.82110000 3.44924000e-03
-13.79110000 3.46686000e-03
-13.76110000 3.48793000e-03
-13.73110000 3.51545000e-03
-13.70110000 3.55601000e-03
-13.67110000 3.61681000e-03
-13.64110000 3.65992000e-03
-13.61110000 3.63966000e-03
-13.58110000 3.62096000e-03
-13.52850000 3.63039000e-03
-13.49850000 3.64874000e-03
-13.46850000 3.67300000e-03
-13.43850000 3.70331000e-03
-13.40850000 3.74175000e-03
-13.37850000 3.79355000e-03
-13.34850000 3.86725000e-03
-13.31850000 3.95157000e-03
-13.28850000 4.00925000e-03
-13.25850000 4.09679000e-03
-13.22850000 4.27697000e-03
-13.19850000 4.62875000e-03
-13.16850000 5.22780000e-03
-13.13850000 5.56541000e-03
-13.10850000 5.10167000e-03
-13.07850000 4.69262000e-03
-13.04850000 4.53389000e-03
-13.01850000 4.52416000e-03
-12.98850000 4.61687000e-03
-12.95850000 4.82008000e-03
-12.92850000 5.19553000e-03
-12.89850000 5.87798000e-03
-12.86850000 6.79753000e-03
-12.83850000 6.98790000e-03
-12.80850000 6.90808000e-03
-12.77850000 7.47627000e-03
-12.74850000 8.94623000e-03
-12.71850000 1.17282000e-02
-12.68850000 1.35412000e-02
-12.65850000 1.21955000e-02
-12.62850000 1.13841000e-02
-12.59850000 1.31194000e-02
-12.56850000 1.81435000e-02
-12.53850000 2.31341000e-02
-12.50850000 1.88732000e-02
-12.47850000 1.28081000e-02
-12.44850000 9.46958000e-03
-12.41850000 7.64872000e-03
-12.38850000 6.65677000e-03
-12.35850000 6.14847000e-03
-12.32850000 5.93538000e-03
-12.29850000 5.85800000e-03
-12.26850000 5.86729000e-03
-12.23850000 6.08756000e-03
-12.20850000 6.18540000e-03
-12.17850000 5.93587000e-03
-12.14850000 5.82742000e-03
-12.11850000 5.96156000e-03
-12.08850000 6.36879000e-03
-12.05850000 7.19664000e-03
-12.02850000 8.53057000e-03
-11.99850000 9.59229000e-03
-11.96850000 9.25965000e-03
-11.93850000 8.86541000e-03
-11.90850000 9.00315000e-03
-11.87850000 9.98653000e-03
-11.84850000 1.18031000e-02
-11.81850000 1.52201000e-02
-11.78850000 2.09678000e-02
-11.73590000 3.69125000e-02
-11.70590000 3.54465000e-02
-11.67590000 2.49042000e-02
-11.64590000 1.95446000e-02
-11.61590000 1.78739000e-02
-11.58590000 1.53600000e-02
-11.55590000 1.21341000e-02
-11.52590000 9.77988000e-03
-11.49590000 8.23104000e-03
-11.46590000 7.36742000e-03
-11.43590000 6.93319000e-03
-11.40590000 6.79732000e-03
-11.37590000 6.96849000e-03
-11.34590000 7.55802000e-03
-11.31590000 8.44006000e-03
-11.28590000 8.66565000e-03
-11.25590000 7.93705000e-03
-11.22590000 7.48602000e-03
-11.19590000 7.71629000e-03
-11.16590000 8.59112000e-03
-11.13590000 9.96940000e-03
-11.10590000 1.07594000e-02
-11.07590000 9.28001000e-03
-11.04590000 7.92015000e-03
-11.01590000 7.38606000e-03
-10.98590000 7.40173000e-03
-10.95590000 7.91459000e-03
-10.92590000 9.09199000e-03
-10.89590000 1.04696000e-02
-10.86590000 1.13317000e-02
-10.83590000 1.31632000e-02
-10.80590000 1.52641000e-02
-10.77590000 1.45344000e-02
-10.74590000 1.33481000e-02
-10.71590000 1.32048000e-02
-10.68590000 1.31304000e-02
-10.65590000 1.37756000e-02
-10.62590000 1.34192000e-02
-10.59590000 1.22891000e-02
-10.56590000 1.23417000e-02
-10.53590000 1.17058000e-02
-10.50590000 1.05068000e-02
-10.47590000 1.02499000e-02
-10.44590000 1.05858000e-02
-10.41590000 1.10326000e-02
-10.38590000 1.22890000e-02
-10.35590000 1.42624000e-02
-10.32590000 1.46263000e-02
-10.29590000 1.31109000e-02
-10.26590000 1.21281000e-02
-10.23590000 1.17117000e-02
-10.20590000 1.24611000e-02
-10.17590000 1.35581000e-02
-10.14590000 1.34936000e-02
-10.11590000 1.43018000e-02
-10.08590000 1.56742000e-02
-10.05590000 1.48856000e-02
-10.02590000 1.26622000e-02
-9.99591000 1.11481000e-02
-9.94332000 1.12029000e-02
-9.91332000 1.19436000e-02
-9.88332000 1.29248000e-02
-9.85332000 1.39772000e-02
-9.82332000 1.50543000e-02
-9.79332000 1.84989000e-02
-9.76332000 2.56903000e-02
-9.73332000 3.22854000e-02
-9.70332000 2.72080000e-02
-9.67332000 2.03706000e-02
-9.64332000 1.81580000e-02
-9.61332000 1.82883000e-02
-9.58332000 1.79068000e-02
-9.55332000 1.63040000e-02
-9.52332000 1.56687000e-02
-9.49332000 1.70892000e-02
-9.46332000 1.77191000e-02
-9.43332000 1.49272000e-02
-9.40332000 1.31069000e-02
-9.37332000 1.33400000e-02
-9.34332000 1.48298000e-02
-9.31332000 1.46353000e-02
-9.28332000 1.22884000e-02
-9.25332000 1.05189000e-02
-9.22332000 9.87405000e-03
-9.19332000 9.95579000e-03
-9.16332000 1.03793000e-02
-9.13332000 1.15064000e-02
-9.10332000 1.27203000e-02
-9.07332000 1.18822000e-02
-9.04332000 1.04417000e-02
-9.01332000 9.55191000e-03
-8.98332000 9.26740000e-03
-8.95332000 9.40043000e-03
-8.92332000 9.69452000e-03
-8.89332000 1.02877000e-02
-8.86332000 1.15428000e-02
-8.83332000 1.34878000e-02
-8.80332000 1.55955000e-02
-8.77332000 1.57768000e-02
-8.74332000 1.54567000e-02
-8.71332000 1.47240000e-02
-8.68332000 1.36969000e-02
-8.65332000 1.27654000e-02
-8.62332000 1.30974000e-02
-8.59332000 1.39145000e-02
-8.56332000 1.33013000e-02
-8.53332000 1.26219000e-02
-8.50332000 1.31427000e-02
-8.47332000 1.42442000e-02
-8.44332000 1.56203000e-02
-8.41332000 1.66850000e-02
-8.38332000 1.54525000e-02
-8.35332000 1.43499000e-02
-8.32332000 1.46986000e-02
-8.29332000 1.66280000e-02
-8.26332000 1.92154000e-02
-8.23332000 1.88215000e-02
-8.20332000 1.82181000e-02
-8.15072000 1.57097000e-02
-8.12072000 1.43949000e-02
-8.09072000 1.45545000e-02
-8.06072000 1.56608000e-02
-8.03072000 1.75011000e-02
-8.00072000 2.13339000e-02
-7.97072000 2.78044000e-02
-7.94072000 3.26145000e-02
-7.91072000 3.44154000e-02
-7.88072000 3.48451000e-02
-7.85072000 3.10630000e-02
-7.82072000 2.64936000e-02
-7.79072000 2.31889000e-02
-7.76072000 2.10591000e-02
-7.73072000 2.15765000e-02
-7.70072000 2.52498000e-02
-7.67072000 3.27097000e-02
-7.64072000 4.23876000e-02
-7.61072000 5.68203000e-02
-7.58072000 6.27144000e-02
-7.55072000 4.66490000e-02
-7.52072000 3.20544000e-02
-7.49072000 2.40914000e-02
-7.46072000 2.04510000e-02
-7.43072000 1.88373000e-02
-7.40072000 1.80797000e-02
-7.37072000 1.80777000e-02
-7.34072000 1.76725000e-02
-7.31072000 1.71809000e-02
-7.28072000 1.69872000e-02
-7.25072000 1.77221000e-02
-7.22072000 1.98238000e-02
-7.19072000 2.22940000e-02
-7.16072000 2.38477000e-02
-7.13072000 2.65037000e-02
-7.10072000 2.78366000e-02
-7.07072000 2.56483000e-02
-7.04072000 2.33023000e-02
-7.01072000 2.30183000e-02
-6.98072000 2.45979000e-02
-6.95072000 2.77806000e-02
-6.92072000 3.44743000e-02
-6.89072000 4.42693000e-02
-6.86072000 5.49391000e-02
-6.83072000 6.83956000e-02
-6.80072000 6.26990000e-02
-6.77072000 4.85234000e-02
-6.74072000 4.27612000e-02
-6.71072000 4.22004000e-02
-6.68072000 4.14349000e-02
-6.65072000 4.08927000e-02
-6.62072000 3.92581000e-02
-6.59072000 4.08582000e-02
-6.56072000 4.74416000e-02
-6.53072000 5.71420000e-02
-6.50072000 7.34181000e-02
-6.47072000 7.98486000e-02
-6.44072000 7.51636000e-02
-6.41072000 8.27974000e-02
-6.35812000 1.22317000e-01
-6.32812000 1.01939000e-01
-6.29812000 7.81401000e-02
-6.26812000 6.56187000e-02
-6.23812000 5.32856000e-02
-6.20812000 4.84354000e-02
-6.17812000 4.78166000e-02
-6.14812000 4.07353000e-02
-6.11812000 3.40498000e-02
-6.08812000 3.09351000e-02
-6.05812000 3.02578000e-02
-6.02812000 3.14763000e-02
-5.99812000 3.30555000e-02
-5.96812000 3.12675000e-02
-5.93812000 3.02007000e-02
-5.90812000 3.11341000e-02
-5.87812000 3.20441000e-02
-5.84812000 3.46238000e-02
-5.81812000 4.09222000e-02
-5.78812000 5.02238000e-02
-5.75812000 5.48373000e-02
-5.72812000 5.90523000e-02
-5.69812000 6.86271000e-02
-5.66812000 7.38190000e-02
-5.63812000 7.25939000e-02
-5.60812000 5.82493000e-02
-5.57812000 4.61917000e-02
-5.54812000 4.02850000e-02
-5.51812000 3.99609000e-02
-5.48812000 4.48029000e-02
-5.45812000 5.08111000e-02
-5.42812000 5.89935000e-02
-5.39812000 7.31975000e-02
-5.36812000 8.76131000e-02
-5.33812000 8.14082000e-02
-5.30812000 6.11096000e-02
-5.27812000 4.89368000e-02
-5.24812000 4.37559000e-02
-5.21812000 4.27283000e-02
-5.18812000 4.58309000e-02
-5.15812000 5.29197000e-02
-5.12812000 6.09551000e-02
-5.09812000 7.37885000e-02
-5.06812000 9.81717000e-02
-5.03812000 1.30557000e-01
-5.00812000 1.60464000e-01
-4.97812000 1.44684000e-01
-4.94812000 1.15723000e-01
-4.91812000 9.00463000e-02
-4.88812000 7.68400000e-02
-4.85812000 7.99019000e-02
-4.82812000 1.02001000e-01
-4.79812000 1.43708000e-01
-4.76812000 1.55280000e-01
-4.73812000 1.19061000e-01
-4.70812000 9.66254000e-02
-4.67812000 9.09037000e-02
-4.64812000 7.84437000e-02
-4.61812000 6.64853000e-02
-4.56552000 6.24879000e-02
-4.53552000 5.52222000e-02
-4.50552000 4.73136000e-02
-4.47552000 4.17915000e-02
-4.44552000 3.86102000e-02
-4.41552000 3.74570000e-02
-4.38552000 3.68100000e-02
-4.35552000 3.64458000e-02
-4.32552000 3.68148000e-02
-4.29552000 3.81435000e-02
-4.26552000 4.07252000e-02
-4.23552000 4.27316000e-02
-4.20552000 4.29672000e-02
-4.17552000 4.31532000e-02
-4.14552000 4.46740000e-02
-4.11552000 4.71381000e-02
-4.08552000 5.03644000e-02
-4.05552000 5.53595000e-02
-4.02552000 6.35534000e-02
-3.99552000 7.17500000e-02
-3.96552000 7.64844000e-02
-3.93552000 8.59621000e-02
-3.90552000 1.05263000e-01
-3.87552000 1.41052000e-01
-3.84552000 2.05230000e-01
-3.81552000 2.89071000e-01
-3.78552000 2.98904000e-01
-3.75552000 2.24026000e-01
-3.72552000 1.63753000e-01
-3.69552000 1.38896000e-01
-3.66552000 1.35128000e-01
-3.63552000 1.34202000e-01
-3.60552000 1.34380000e-01
-3.57552000 1.42188000e-01
-3.54552000 1.55115000e-01
-3.51552000 1.75362000e-01
-3.48552000 2.06505000e-01
-3.45552000 2.58936000e-01
-3.42552000 3.54481000e-01
-3.39552000 5.30459000e-01
-3.36552000 8.65467000e-01
-3.33552000 1.38358000e+00
-3.30552000 1.45426000e+00
-3.27552000 9.79014000e-01
-3.24552000 6.32024000e-01
-3.21552000 4.66093000e-01
-3.18552000 3.97402000e-01
-3.15552000 3.77274000e-01
-3.12552000 3.98778000e-01
-3.09552000 4.76800000e-01
-3.06552000 6.19850000e-01
-3.03552000 8.21132000e-01
-3.00552000 1.08451000e+00
-2.97552000 1.43339000e+00
-2.94552000 1.68696000e+00
-2.91552000 1.53147000e+00
-2.88552000 1.30336000e+00
-2.85552000 1.30665000e+00
-2.82552000 1.49709000e+00
-2.77293000 1.78520000e+00
-2.74293000 1.28870000e+00
-2.71293000 9.33665000e-01
-2.68293000 7.95669000e-01
-2.65293000 7.97082000e-01
-2.62293000 9.32985000e-01
-2.59293000 1.26201000e+00
-2.56293000 1.90598000e+00
-2.53293000 3.02852000e+00
-2.50293000 3.93833000e+00
-2.47293000 3.54913000e+00
-2.44293000 2.41917000e+00
-2.41293000 1.57283000e+00
-2.38293000 1.11104000e+00
-2.35293000 8.70123000e-01
-2.32293000 7.80925000e-01
-2.29293000 7.54226000e-01
-2.26293000 6.64258000e-01
-2.23293000 5.91382000e-01
-2.20293000 6.14452000e-01
-2.17293000 7.59563000e-01
-2.14293000 1.08152000e+00
-2.11293000 1.38344000e+00
-2.08293000 1.14303000e+00
-2.05293000 8.09772000e-01
-2.02293000 6.46853000e-01
-1.99293000 5.87946000e-01
-1.96293000 6.03509000e-01
-1.93293000 6.99393000e-01
-1.90293000 9.06184000e-01
-1.87293000 1.29103000e+00
-1.84293000 1.90037000e+00
-1.81293000 2.59867000e+00
-1.78293000 3.21303000e+00
-1.75293000 3.94924000e+00
-1.72293000 4.67444000e+00
-1.69293000 3.71258000e+00
-1.66293000 2.56022000e+00
-1.63293000 2.09623000e+00
-1.60293000 2.13209000e+00
-1.57293000 2.01667000e+00
-1.54293000 1.62978000e+00
-1.51293000 1.53062000e+00
-1.48293000 1.65948000e+00
-1.45293000 1.63847000e+00
-1.42293000 1.47423000e+00
-1.39293000 1.29896000e+00
-1.36293000 9.78336000e-01
-1.33293000 7.34774000e-01
-1.30293000 5.89963000e-01
-1.27293000 4.98917000e-01
-1.24293000 4.53665000e-01
-1.21293000 4.53205000e-01
-1.18293000 5.00883000e-01
-1.15293000 6.11105000e-01
-1.12293000 7.83266000e-01
-1.09293000 9.96103000e-01
-1.06293000 1.34864000e+00
-1.03293000 1.98365000e+00
-0.98032800 4.00170000e+00
-0.95032800 4.14476000e+00
-0.92032800 2.83019000e+00
-0.89032800 1.72982000e+00
-0.86032800 1.08111000e+00
-0.83032800 7.23773000e-01
-0.80032800 5.27843000e-01
-0.77032800 4.17000000e-01
-0.74032800 3.51345000e-01
-0.71032800 3.14102000e-01
-0.68032800 3.00891000e-01
-0.65032800 3.04554000e-01
-0.62032800 3.03244000e-01
-0.59032800 2.82319000e-01
-0.56032800 2.68091000e-01
-0.53032800 2.46874000e-01
-0.50032800 2.32046000e-01
-0.47032800 2.24854000e-01
-0.44032800 2.05914000e-01
-0.41032800 1.87472000e-01
-0.38032800 1.84595000e-01
-0.35032800 2.00666000e-01
-0.32032800 2.13441000e-01
-0.29032800 1.81017000e-01
-0.26032800 1.49892000e-01
-0.23032800 1.40149000e-01
-0.20032800 1.43095000e-01
-0.17032800 1.51361000e-01
-0.14032800 1.53338000e-01
-0.11032800 1.59070000e-01
-0.08032760 1.58242000e-01
-0.05032760 1.47719000e-01
-0.02032760 1.43600000e-01
0.00967239 1.39730000e-01
0.03967240 1.42503000e-01
0.06967240 1.55702000e-01
0.09967240 1.64220000e-01
0.12967200 1.60949000e-01
0.15967200 1.58140000e-01
0.18967200 1.71109000e-01
0.21967200 1.97993000e-01
0.24967200 2.23917000e-01
0.27967200 2.69367000e-01
0.30967200 3.48183000e-01
0.33967200 4.23384000e-01
0.36967200 5.01075000e-01
0.39967200 6.11087000e-01
0.42967200 7.73605000e-01
0.45967200 8.02764000e-01
0.48967200 6.70264000e-01
0.51967200 5.54849000e-01
0.54967200 4.88479000e-01
0.57967200 4.96815000e-01
0.60967200 5.79275000e-01
0.63967200 6.30755000e-01
0.66967200 5.83701000e-01
0.69967200 5.58970000e-01
0.72967200 5.47371000e-01
0.75967200 5.13009000e-01
