# E(MeV)  S_GAMTGAMT(K=1) for Am313_DDPCX
-17.52730000 2.68473000e-03
-17.49730000 2.69732000e-03
-17.46730000 2.70964000e-03
-17.43730000 2.72173000e-03
-17.40730000 2.73362000e-03
-17.37730000 2.74536000e-03
-17.34730000 2.75696000e-03
-17.31730000 2.76846000e-03
-17.28730000 2.77986000e-03
-17.25730000 2.79120000e-03
-17.22730000 2.80247000e-03
-17.19730000 2.81371000e-03
-17.16730000 2.82492000e-03
-17.13730000 2.83611000e-03
-17.10730000 2.84730000e-03
-17.07730000 2.85849000e-03
-17.04730000 2.86969000e-03
-17.01730000 2.88092000e-03
-16.98730000 2.89218000e-03
-16.95730000 2.90349000e-03
-16.92730000 2.91486000e-03
-16.89730000 2.92629000e-03
-16.86730000 2.93780000e-03
-16.83730000 2.94941000e-03
-16.80730000 2.96113000e-03
-16.77730000 2.97297000e-03
-16.74730000 2.98498000e-03
-16.71730000 2.99717000e-03
-16.68730000 3.00961000e-03
-16.65730000 3.02236000e-03
-16.62730000 3.03555000e-03
-16.59730000 3.04938000e-03
-16.56730000 3.06427000e-03
-16.53730000 3.08109000e-03
-16.50730000 3.10177000e-03
-16.47730000 3.12984000e-03
-16.44730000 3.16129000e-03
-16.41730000 3.16906000e-03
-16.38730000 3.16642000e-03
-16.35730000 3.17225000e-03
-16.32730000 3.18471000e-03
-16.29730000 3.20153000e-03
-16.26730000 3.22138000e-03
-16.23730000 3.24437000e-03
-16.20730000 3.27328000e-03
-16.17730000 3.31202000e-03
-16.14730000 3.36827000e-03
-16.11730000 3.45937000e-03
-16.08730000 3.62480000e-03
-16.05730000 3.92617000e-03
-16.02730000 4.20981000e-03
-15.99730000 4.01755000e-03
-15.96730000 3.73160000e-03
-15.93730000 3.58685000e-03
-15.90730000 3.52906000e-03
-15.87730000 3.51737000e-03
-15.84730000 3.53997000e-03
-15.81730000 3.60238000e-03
-15.78730000 3.68190000e-03
-15.75730000 3.66416000e-03
-15.72730000 3.60607000e-03
-15.69330000 3.58054000e-03
-15.66330000 3.58192000e-03
-15.63330000 3.59445000e-03
-15.60330000 3.61341000e-03
-15.57330000 3.63680000e-03
-15.54330000 3.66378000e-03
-15.51330000 3.69411000e-03
-15.48330000 3.72786000e-03
-15.45330000 3.76535000e-03
-15.42330000 3.80719000e-03
-15.39330000 3.85430000e-03
-15.36330000 3.90815000e-03
-15.33330000 3.97120000e-03
-15.30330000 4.04791000e-03
-15.27330000 4.14722000e-03
-15.24330000 4.28568000e-03
-15.21330000 4.46427000e-03
-15.18330000 4.60839000e-03
-15.15330000 4.78323000e-03
-15.12330000 5.07649000e-03
-15.09330000 5.23985000e-03
-15.06330000 5.22195000e-03
-15.03330000 5.31303000e-03
-15.00330000 5.54275000e-03
-14.97330000 5.90268000e-03
-14.94330000 6.42069000e-03
-14.91330000 7.16802000e-03
-14.88330000 8.28522000e-03
-14.85330000 1.00514000e-02
-14.82330000 1.30405000e-02
-14.79330000 1.84049000e-02
-14.76330000 2.85423000e-02
-14.73330000 4.45317000e-02
-14.70330000 5.00828000e-02
-14.67330000 4.31935000e-02
-14.64330000 4.27724000e-02
-14.61330000 4.06063000e-02
-14.58330000 2.97312000e-02
-14.55330000 2.14150000e-02
-14.52330000 1.70840000e-02
-14.49330000 1.33437000e-02
-14.46330000 1.07671000e-02
-14.43330000 9.18157000e-03
-14.40330000 8.08464000e-03
-14.37330000 7.43391000e-03
-14.34330000 7.13621000e-03
-14.31330000 7.12919000e-03
-14.28330000 7.33643000e-03
-14.25330000 7.51837000e-03
-14.22330000 7.87623000e-03
-14.19330000 8.57041000e-03
-14.16330000 9.48612000e-03
-14.13330000 1.10714000e-02
-14.10330000 1.41932000e-02
-14.07330000 1.93881000e-02
-14.04330000 2.26821000e-02
-14.01330000 2.10722000e-02
-13.98330000 2.27668000e-02
-13.95330000 3.13776000e-02
-13.92330000 4.25496000e-02
-13.89330000 3.76922000e-02
-13.85940000 2.67258000e-02
-13.82940000 2.15421000e-02
-13.79940000 1.74325000e-02
-13.76940000 1.53011000e-02
-13.73940000 1.32057000e-02
-13.70940000 1.08999000e-02
-13.67940000 9.69008000e-03
-13.64940000 9.59008000e-03
-13.61940000 1.01242000e-02
-13.58940000 1.08582000e-02
-13.55940000 1.07988000e-02
-13.52940000 9.42962000e-03
-13.49940000 8.34825000e-03
-13.46940000 7.77189000e-03
-13.43940000 7.35476000e-03
-13.40940000 7.19111000e-03
-13.37940000 7.29447000e-03
-13.34940000 7.67072000e-03
-13.31940000 8.59410000e-03
-13.28940000 9.53905000e-03
-13.25940000 9.69607000e-03
-13.22940000 1.00189000e-02
-13.19940000 1.00229000e-02
-13.16940000 9.68534000e-03
-13.13940000 9.47652000e-03
-13.10940000 9.97246000e-03
-13.07940000 1.11682000e-02
-13.04940000 1.35924000e-02
-13.01940000 1.76035000e-02
-12.98940000 2.41585000e-02
-12.95940000 2.85897000e-02
-12.92940000 2.43818000e-02
-12.89940000 2.20142000e-02
-12.86940000 2.54841000e-02
-12.83940000 3.58070000e-02
-12.80940000 4.50349000e-02
-12.77940000 3.51239000e-02
-12.74940000 2.24438000e-02
-12.71940000 1.56012000e-02
-12.68940000 1.22201000e-02
-12.65940000 1.05279000e-02
-12.62940000 9.78311000e-03
-12.59940000 9.75588000e-03
-12.56940000 9.99830000e-03
-12.53940000 9.96036000e-03
-12.50940000 1.03647000e-02
-12.47940000 1.19421000e-02
-12.44940000 1.51814000e-02
-12.41940000 1.78588000e-02
-12.38940000 1.69790000e-02
-12.35940000 1.57713000e-02
-12.32940000 1.47298000e-02
-12.29940000 1.37754000e-02
-12.26940000 1.47459000e-02
-12.23940000 1.71749000e-02
-12.20940000 2.05203000e-02
-12.17940000 2.61005000e-02
-12.14940000 3.03882000e-02
-12.11940000 3.06718000e-02
-12.08940000 2.40092000e-02
-12.05940000 1.67515000e-02
-12.02540000 1.21756000e-02
-11.99540000 1.03301000e-02
-11.96540000 9.62661000e-03
-11.93540000 9.78761000e-03
-11.90540000 1.03529000e-02
-11.87540000 9.92623000e-03
-11.84540000 9.17344000e-03
-11.81540000 9.04447000e-03
-11.78540000 9.82153000e-03
-11.75540000 1.10725000e-02
-11.72540000 1.14212000e-02
-11.69540000 1.12196000e-02
-11.66540000 1.01640000e-02
-11.63540000 8.94085000e-03
-11.60540000 8.26953000e-03
-11.57540000 7.97127000e-03
-11.54540000 8.09191000e-03
-11.51540000 8.72677000e-03
-11.48540000 9.56723000e-03
-11.45540000 9.58419000e-03
-11.42540000 9.15932000e-03
-11.39540000 8.51999000e-03
-11.36540000 8.14388000e-03
-11.33540000 8.16762000e-03
-11.30540000 8.51246000e-03
-11.27540000 9.25913000e-03
-11.24540000 1.03833000e-02
-11.21540000 1.07945000e-02
-11.18540000 1.02907000e-02
-11.15540000 1.00723000e-02
-11.12540000 1.03748000e-02
-11.09540000 1.12961000e-02
-11.06540000 1.31479000e-02
-11.03540000 1.67595000e-02
-11.00540000 2.30225000e-02
-10.97540000 2.97356000e-02
-10.94540000 3.59034000e-02
-10.91540000 4.01559000e-02
-10.88540000 3.68205000e-02
-10.85540000 3.24466000e-02
-10.82540000 2.89107000e-02
-10.79540000 2.68702000e-02
-10.76540000 2.64074000e-02
-10.73540000 2.55803000e-02
-10.70540000 2.63041000e-02
-10.67540000 2.39412000e-02
-10.64540000 2.01932000e-02
-10.61540000 1.99335000e-02
-10.58540000 2.36121000e-02
-10.55540000 2.90789000e-02
-10.52540000 2.68182000e-02
-10.49540000 1.94802000e-02
-10.46540000 1.50416000e-02
-10.43540000 1.32219000e-02
-10.40540000 1.26777000e-02
-10.37540000 1.22274000e-02
-10.34540000 1.13275000e-02
-10.31540000 1.06640000e-02
-10.28540000 1.05822000e-02
-10.25540000 1.09325000e-02
-10.22540000 1.13597000e-02
-10.19150000 1.16057000e-02
-10.16150000 1.23805000e-02
-10.13150000 1.44362000e-02
-10.10150000 1.75043000e-02
-10.07150000 1.98344000e-02
-10.04150000 2.24181000e-02
-10.01150000 2.37796000e-02
-9.98146000 2.43418000e-02
-9.95146000 2.35338000e-02
-9.92146000 2.05726000e-02
-9.89146000 1.86125000e-02
-9.86146000 1.62288000e-02
-9.83146000 1.38365000e-02
-9.80146000 1.22032000e-02
-9.77146000 1.12897000e-02
-9.74146000 1.10091000e-02
-9.71146000 1.11894000e-02
-9.68146000 1.17447000e-02
-9.65146000 1.26635000e-02
-9.62146000 1.31913000e-02
-9.59146000 1.33527000e-02
-9.56146000 1.39905000e-02
-9.53146000 1.54991000e-02
-9.50146000 1.85142000e-02
-9.47146000 2.37317000e-02
-9.44146000 2.89073000e-02
-9.41146000 3.51521000e-02
-9.38146000 4.68111000e-02
-9.35146000 5.39642000e-02
-9.32146000 5.24915000e-02
-9.29146000 4.39805000e-02
-9.26146000 3.67422000e-02
-9.23146000 3.41088000e-02
-9.20146000 3.60086000e-02
-9.17146000 3.76334000e-02
-9.14146000 3.21461000e-02
-9.11146000 2.71674000e-02
-9.08146000 2.44634000e-02
-9.05146000 2.17764000e-02
-9.02146000 2.06224000e-02
-8.99146000 2.07459000e-02
-8.96146000 2.30688000e-02
-8.93146000 2.73708000e-02
-8.90146000 2.87323000e-02
-8.87146000 2.65927000e-02
-8.84146000 2.67904000e-02
-8.81146000 3.15220000e-02
-8.78146000 4.14016000e-02
-8.75146000 5.88747000e-02
-8.72146000 6.95294000e-02
-8.69146000 5.25102000e-02
-8.66146000 3.57042000e-02
-8.63146000 2.72514000e-02
-8.60146000 2.36631000e-02
-8.57146000 2.30283000e-02
-8.54146000 2.33329000e-02
-8.51146000 2.44966000e-02
-8.48146000 2.72583000e-02
-8.45146000 2.56090000e-02
-8.42146000 2.17560000e-02
-8.39146000 1.99940000e-02
-8.35750000 1.94848000e-02
-8.32750000 2.03332000e-02
-8.29750000 2.23372000e-02
-8.26750000 2.46634000e-02
-8.23750000 2.95936000e-02
-8.20750000 3.52993000e-02
-8.17750000 3.44328000e-02
-8.14750000 2.91982000e-02
-8.11750000 2.34818000e-02
-8.08750000 2.02219000e-02
-8.05750000 1.87959000e-02
-8.02750000 1.86525000e-02
-7.99750000 1.96696000e-02
-7.96750000 2.19533000e-02
-7.93750000 2.50539000e-02
-7.90750000 2.75104000e-02
-7.87750000 3.22839000e-02
-7.84750000 4.07877000e-02
-7.81750000 5.00150000e-02
-7.78750000 5.38604000e-02
-7.75750000 4.89129000e-02
-7.72750000 5.09643000e-02
-7.69750000 5.93705000e-02
-7.66750000 5.68221000e-02
-7.63750000 5.31924000e-02
-7.60750000 5.94749000e-02
-7.57750000 6.84061000e-02
-7.54750000 6.35779000e-02
-7.51750000 5.38232000e-02
-7.48750000 5.59011000e-02
-7.45750000 7.08668000e-02
-7.42750000 7.84386000e-02
-7.39750000 5.94088000e-02
-7.36750000 4.34868000e-02
-7.33750000 3.67903000e-02
-7.30750000 3.30055000e-02
-7.27750000 2.97582000e-02
-7.24750000 2.87532000e-02
-7.21750000 3.06866000e-02
-7.18750000 3.34076000e-02
-7.15750000 3.51781000e-02
-7.12750000 3.43223000e-02
-7.09750000 3.36787000e-02
-7.06750000 3.28841000e-02
-7.03750000 3.22597000e-02
-7.00750000 2.98295000e-02
-6.97750000 2.86986000e-02
-6.94750000 3.09861000e-02
-6.91750000 3.66362000e-02
-6.88750000 4.18302000e-02
-6.85750000 4.09669000e-02
-6.82750000 3.74027000e-02
-6.79750000 3.72720000e-02
-6.76750000 4.04241000e-02
-6.73750000 4.45674000e-02
-6.70750000 4.51507000e-02
-6.67750000 4.79609000e-02
-6.64750000 5.49232000e-02
-6.61750000 6.23720000e-02
-6.58750000 6.24516000e-02
-6.55750000 6.08447000e-02
-6.52355000 6.78677000e-02
-6.49355000 8.74406000e-02
-6.46355000 1.13650000e-01
-6.43355000 1.28264000e-01
-6.40355000 1.40708000e-01
-6.37355000 1.27570000e-01
-6.34355000 1.12807000e-01
-6.31355000 1.19696000e-01
-6.28355000 1.28189000e-01
-6.25355000 1.09936000e-01
-6.22355000 8.46688000e-02
-6.19355000 6.96274000e-02
-6.16355000 5.81680000e-02
-6.13355000 5.09962000e-02
-6.10355000 5.08275000e-02
-6.07355000 5.54311000e-02
-6.04355000 6.42883000e-02
-6.01355000 7.13541000e-02
-5.98355000 6.20458000e-02
-5.95355000 5.22554000e-02
-5.92355000 4.76820000e-02
-5.89355000 4.57777000e-02
-5.86355000 4.67866000e-02
-5.83355000 4.96852000e-02
-5.80355000 5.39094000e-02
-5.77355000 5.19341000e-02
-5.74355000 4.57609000e-02
-5.71355000 4.11813000e-02
-5.68355000 3.75482000e-02
-5.65355000 3.53990000e-02
-5.62355000 3.46298000e-02
-5.59355000 3.51394000e-02
-5.56355000 3.72948000e-02
-5.53355000 3.96542000e-02
-5.50355000 4.05089000e-02
-5.47355000 4.02505000e-02
-5.44355000 4.08084000e-02
-5.41355000 4.30722000e-02
-5.38355000 4.77616000e-02
-5.35355000 5.36572000e-02
-5.32355000 5.91552000e-02
-5.29355000 6.26669000e-02
-5.26355000 6.55688000e-02
-5.23355000 7.06306000e-02
-5.20355000 7.37588000e-02
-5.17355000 7.77150000e-02
-5.14355000 8.40623000e-02
-5.11355000 9.00781000e-02
-5.08355000 9.42845000e-02
-5.05355000 1.09807000e-01
-5.02355000 1.49878000e-01
-4.99355000 2.23976000e-01
-4.96355000 2.64886000e-01
-4.93355000 2.04754000e-01
-4.90355000 1.54371000e-01
-4.87355000 1.37638000e-01
-4.84355000 1.32880000e-01
-4.81355000 1.25311000e-01
-4.78355000 1.22169000e-01
-4.75355000 1.23314000e-01
-4.72355000 1.29744000e-01
-4.68959000 1.49583000e-01
-4.65959000 1.81580000e-01
-4.62959000 2.26396000e-01
-4.59959000 2.91729000e-01
-4.56959000 4.05018000e-01
-4.53959000 5.89147000e-01
-4.50959000 8.61824000e-01
-4.47959000 1.28642000e+00
-4.44959000 1.59040000e+00
-4.41959000 1.30989000e+00
-4.38959000 8.81867000e-01
-4.35959000 5.87447000e-01
-4.32959000 4.36790000e-01
-4.29959000 3.69790000e-01
-4.26959000 3.58237000e-01
-4.23959000 3.98806000e-01
-4.20959000 5.12706000e-01
-4.17959000 7.44212000e-01
-4.14959000 1.10302000e+00
-4.11959000 1.56336000e+00
-4.08959000 1.63652000e+00
-4.05959000 1.10559000e+00
-4.02959000 6.97771000e-01
-3.99959000 4.95402000e-01
-3.96959000 4.03367000e-01
-3.93959000 3.62033000e-01
-3.90959000 3.54473000e-01
-3.87959000 3.82702000e-01
-3.84959000 4.61066000e-01
-3.81959000 5.95533000e-01
-3.78959000 6.71190000e-01
-3.75959000 6.59940000e-01
-3.72959000 7.41948000e-01
-3.69959000 1.02176000e+00
-3.66959000 1.57381000e+00
-3.63959000 2.09306000e+00
-3.60959000 2.12757000e+00
-3.57959000 2.36573000e+00
-3.54959000 2.39850000e+00
-3.51959000 1.72184000e+00
-3.48959000 1.16578000e+00
-3.45959000 9.05032000e-01
-3.42959000 7.32197000e-01
-3.39959000 6.27072000e-01
-3.36959000 6.07664000e-01
-3.33959000 6.33486000e-01
-3.30959000 6.69572000e-01
-3.27959000 7.59423000e-01
-3.24959000 8.73021000e-01
-3.21959000 9.71599000e-01
-3.18959000 1.20245000e+00
-3.15959000 1.69933000e+00
-3.12959000 2.67205000e+00
-3.09959000 4.45327000e+00
-3.06959000 5.76729000e+00
-3.03959000 4.63642000e+00
-3.00959000 3.44454000e+00
-2.97959000 2.44379000e+00
-2.94959000 1.71319000e+00
-2.91959000 1.33794000e+00
-2.88959000 1.10546000e+00
-2.85564000 1.00981000e+00
-2.82564000 9.97789000e-01
-2.79564000 8.82262000e-01
-2.76564000 7.60061000e-01
-2.73564000 7.40025000e-01
-2.70564000 7.98967000e-01
-2.67564000 8.36699000e-01
-2.64564000 8.49630000e-01
-2.61564000 9.55364000e-01
-2.58564000 1.24458000e+00
-2.55564000 1.58367000e+00
-2.52564000 1.66756000e+00
-2.49564000 1.71158000e+00
-2.46564000 1.76795000e+00
-2.43564000 2.11336000e+00
-2.40564000 2.87861000e+00
-2.37564000 4.35554000e+00
-2.34564000 5.73533000e+00
-2.31564000 4.74918000e+00
-2.28564000 3.06002000e+00
-2.25564000 1.91205000e+00
-2.22564000 1.32792000e+00
-2.19564000 1.05435000e+00
-2.16564000 9.74966000e-01
-2.13564000 8.77508000e-01
-2.10564000 6.57405000e-01
-2.07564000 4.94477000e-01
-2.04564000 3.96204000e-01
-2.01564000 3.36074000e-01
-1.98564000 2.98948000e-01
-1.95564000 2.80193000e-01
-1.92564000 2.73818000e-01
-1.89564000 2.68438000e-01
-1.86564000 2.79873000e-01
-1.83564000 3.02932000e-01
-1.80564000 3.06887000e-01
-1.77564000 2.97911000e-01
-1.74564000 2.95531000e-01
-1.71564000 3.15428000e-01
-1.68564000 3.58872000e-01
-1.65564000 4.28125000e-01
-1.62564000 5.36899000e-01
-1.59564000 6.61470000e-01
-1.56564000 7.99572000e-01
-1.53564000 9.84929000e-01
-1.50564000 1.29534000e+00
-1.47564000 1.75417000e+00
-1.44564000 2.44749000e+00
-1.41564000 2.41758000e+00
-1.38564000 1.85421000e+00
-1.35564000 1.50615000e+00
-1.32564000 1.06784000e+00
-1.29564000 7.38042000e-01
-1.26564000 5.81984000e-01
-1.23564000 4.71526000e-01
-1.20564000 3.72980000e-01
-1.17564000 3.17972000e-01
-1.14564000 2.78822000e-01
-1.11564000 2.48257000e-01
-1.08564000 2.27589000e-01
-1.05564000 2.12250000e-01
-1.02168000 2.04191000e-01
-0.99168400 2.16562000e-01
-0.96168400 2.23166000e-01
-0.93168400 2.10757000e-01
-0.90168400 1.90617000e-01
-0.87168400 1.78059000e-01
-0.84168400 1.82261000e-01
-0.81168400 1.85875000e-01
-0.78168400 1.92505000e-01
-0.75168400 2.14434000e-01
-0.72168400 2.41573000e-01
-0.69168400 2.79056000e-01
-0.66168400 3.41000000e-01
-0.63168400 3.91868000e-01
-0.60168400 3.79090000e-01
-0.57168400 3.88291000e-01
-0.54168400 4.51628000e-01
-0.51168400 4.52133000e-01
-0.48168400 3.57988000e-01
-0.45168400 2.87719000e-01
-0.42168400 2.51277000e-01
-0.39168400 2.42191000e-01
-0.36168400 2.56529000e-01
-0.33168400 2.81669000e-01
-0.30168400 3.16096000e-01
-0.27168400 3.81807000e-01
-0.24168400 4.68693000e-01
-0.21168400 5.16670000e-01
-0.18168400 5.27926000e-01
-0.15168400 5.88085000e-01
-0.12168400 7.37076000e-01
-0.09168430 8.77284000e-01
-0.06168430 8.69801000e-01
-0.03168430 8.67808000e-01
-0.00168432 9.32794000e-01
0.02831570 1.02747000e+00
0.05831570 1.10688000e+00
0.08831570 1.14612000e+00
0.11831600 8.98575000e-01
0.14831600 6.68842000e-01
0.17831600 5.63187000e-01
0.20831600 5.32259000e-01
0.23831600 5.62041000e-01
0.26831600 6.06607000e-01
0.29831600 5.56299000e-01
0.32831600 4.78085000e-01
0.35831600 4.49259000e-01
0.38831600 4.67295000e-01
0.41831600 5.28993000e-01
0.44831600 6.36840000e-01
0.47831600 6.84716000e-01
0.50831600 6.99335000e-01
0.53831600 7.95424000e-01
0.56831600 9.85957000e-01
0.59831600 1.15101000e+00
0.62831600 1.17075000e+00
0.65831600 1.18705000e+00
0.68831600 1.19754000e+00
0.71831600 1.05926000e+00
0.74831600 8.99840000e-01
0.77831600 8.96101000e-01
