# E(MeV)  S_GAMTGAMT(Total=K0+2*K1) for Am313_DDPCX
-17.52730000 8.06488000e-03
-17.49730000 8.10047000e-03
-17.46730000 8.13551000e-03
-17.43730000 8.17009000e-03
-17.40730000 8.20426000e-03
-17.37730000 8.23814000e-03
-17.34730000 8.27174000e-03
-17.31730000 8.30515000e-03
-17.28730000 8.33837000e-03
-17.25730000 8.37149000e-03
-17.22730000 8.40450000e-03
-17.19730000 8.43747000e-03
-17.16730000 8.47041000e-03
-17.13730000 8.50334000e-03
-17.10730000 8.53631000e-03
-17.07730000 8.56932000e-03
-17.04730000 8.60240000e-03
-17.01730000 8.63559000e-03
-16.98730000 8.66889000e-03
-16.95730000 8.70235000e-03
-16.92730000 8.73599000e-03
-16.89730000 8.76982000e-03
-16.86730000 8.80388000e-03
-16.83730000 8.83822000e-03
-16.80730000 8.87286000e-03
-16.77730000 8.90782000e-03
-16.74730000 8.94323000e-03
-16.71730000 8.97909000e-03
-16.68730000 9.01555000e-03
-16.65730000 9.05275000e-03
-16.62730000 9.09095000e-03
-16.59730000 9.13056000e-03
-16.56730000 9.17243000e-03
-16.53730000 9.21830000e-03
-16.50730000 9.27205000e-03
-16.47730000 9.34075000e-03
-16.44730000 9.41638000e-03
-16.41730000 9.44486000e-03
-16.38730000 9.45272000e-03
-16.35730000 9.47774000e-03
-16.32730000 9.51627000e-03
-16.29730000 9.56377000e-03
-16.26730000 9.61763000e-03
-16.23730000 9.67808000e-03
-16.20730000 9.75071000e-03
-16.17730000 9.84337000e-03
-16.14730000 9.97147000e-03
-16.11730000 1.01697300e-02
-16.08730000 1.05171700e-02
-16.05730000 1.11370600e-02
-16.02730000 1.17221600e-02
-15.99730000 1.13562100e-02
-15.96730000 1.08037400e-02
-15.93730000 1.05347100e-02
-15.90730000 1.04408100e-02
-15.87730000 1.04406000e-02
-15.84730000 1.05108200e-02
-15.81730000 1.06630400e-02
-15.78730000 1.08526600e-02
-15.75730000 1.08522300e-02
-15.72730000 1.07778300e-02
-15.69330000 1.07877500e-02
-15.66330000 1.08668400e-02
-15.63330000 1.10056700e-02
-15.60330000 1.11801500e-02
-15.57330000 1.13335000e-02
-15.54330000 1.15820600e-02
-15.51330000 1.20529900e-02
-15.48330000 1.25583900e-02
-15.45330000 1.24345600e-02
-15.42330000 1.21693500e-02
-15.39330000 1.21391100e-02
-15.36330000 1.22925200e-02
-15.33330000 1.26106100e-02
-15.30330000 1.31635900e-02
-15.27330000 1.41558700e-02
-15.24330000 1.58370100e-02
-15.21330000 1.70682800e-02
-15.18330000 1.62644100e-02
-15.15330000 1.55870100e-02
-15.12330000 1.57510700e-02
-15.09330000 1.60110800e-02
-15.06330000 1.61318700e-02
-15.03330000 1.66717200e-02
-15.00330000 1.77447100e-02
-14.97330000 1.94366800e-02
-14.94330000 2.18615700e-02
-14.91330000 2.56287400e-02
-14.88330000 3.22417400e-02
-14.85330000 4.45871000e-02
-14.82330000 6.44941000e-02
-14.79330000 7.75231000e-02
-14.76330000 8.52122000e-02
-14.73330000 1.09147500e-01
-14.70330000 1.16851800e-01
-14.67330000 1.00856800e-01
-14.64330000 9.95419000e-02
-14.61330000 9.49486000e-02
-14.58330000 7.38143000e-02
-14.55330000 5.95786000e-02
-14.52330000 4.95591000e-02
-14.49330000 3.79595000e-02
-14.46330000 3.02604200e-02
-14.43330000 2.58235900e-02
-14.40330000 2.30073800e-02
-14.37330000 2.14369200e-02
-14.34330000 2.08241000e-02
-14.31330000 2.10574400e-02
-14.28330000 2.21127300e-02
-14.25330000 2.35526500e-02
-14.22330000 2.47333100e-02
-14.19330000 2.58174000e-02
-14.16330000 2.75085000e-02
-14.13330000 3.09215100e-02
-14.10330000 3.80256400e-02
-14.07330000 5.00811000e-02
-14.04330000 5.96543000e-02
-14.01330000 6.20015000e-02
-13.98330000 7.64183000e-02
-13.95330000 1.13949800e-01
-13.92330000 1.52077000e-01
-13.89330000 1.29588000e-01
-13.85940000 8.96608000e-02
-13.82940000 6.72365000e-02
-13.79940000 5.16396000e-02
-13.76940000 4.33913000e-02
-13.73940000 3.70551000e-02
-13.70940000 3.13119000e-02
-13.67940000 2.84924100e-02
-13.64940000 2.84207000e-02
-13.61940000 2.95016500e-02
-13.58940000 3.10504300e-02
-13.55940000 3.07491100e-02
-13.52940000 2.74106600e-02
-13.49940000 2.51315800e-02
-13.46940000 2.43969100e-02
-13.43940000 2.44645000e-02
-13.40940000 2.60125200e-02
-13.37940000 2.98839400e-02
-13.34940000 3.50362400e-02
-13.31940000 3.95194000e-02
-13.28940000 4.43563000e-02
-13.25940000 4.61042400e-02
-13.22940000 4.23424000e-02
-13.19940000 3.94169000e-02
-13.16940000 3.89963800e-02
-13.13940000 4.14958400e-02
-13.10940000 4.76603200e-02
-13.07940000 4.89129000e-02
-13.04940000 4.81878000e-02
-13.01940000 5.20996000e-02
-12.98940000 6.40691000e-02
-12.95940000 7.47462000e-02
-12.92940000 6.92531000e-02
-12.89940000 6.26818000e-02
-12.86940000 6.52209000e-02
-12.83940000 8.31985000e-02
-12.80940000 1.00864100e-01
-12.77940000 8.13268000e-02
-12.74940000 5.63055000e-02
-12.71940000 4.26339000e-02
-12.68940000 3.47090000e-02
-12.65940000 3.06476500e-02
-12.62940000 2.96339200e-02
-12.59940000 3.15066600e-02
-12.56940000 3.54049000e-02
-12.53940000 3.67723200e-02
-12.50940000 3.47137000e-02
-12.47940000 3.57274000e-02
-12.44940000 4.22591000e-02
-12.41940000 4.86084000e-02
-12.38940000 4.58600000e-02
-12.35940000 4.21239000e-02
-12.32940000 3.98884000e-02
-12.29940000 3.83094000e-02
-12.26940000 4.03763000e-02
-12.23940000 4.58377000e-02
-12.20940000 5.43927000e-02
-12.17940000 6.86860000e-02
-12.14940000 8.27416000e-02
-12.11940000 9.04313000e-02
-12.08940000 7.49057000e-02
-12.05940000 5.21401000e-02
-12.02540000 3.75946000e-02
-11.99540000 3.18478000e-02
-11.96540000 2.94667200e-02
-11.93540000 2.94114500e-02
-11.90540000 3.07702000e-02
-11.87540000 3.07706600e-02
-11.84540000 3.08881800e-02
-11.81540000 3.37416400e-02
-11.78540000 3.90266600e-02
-11.75540000 4.40274000e-02
-11.72540000 4.86995000e-02
-11.69540000 5.42665000e-02
-11.66540000 5.59669000e-02
-11.63540000 5.23528000e-02
-11.60540000 4.62708600e-02
-11.57540000 4.35871400e-02
-11.54540000 4.12571200e-02
-11.51540000 3.75689400e-02
-11.48540000 3.45137600e-02
-11.45540000 3.15688800e-02
-11.42540000 2.92531400e-02
-11.39540000 2.73611800e-02
-11.36540000 2.67027600e-02
-11.33540000 2.77384400e-02
-11.30540000 3.08271200e-02
-11.27540000 3.56370600e-02
-11.24540000 3.79134000e-02
-11.21540000 3.67763000e-02
-11.18540000 3.46539000e-02
-11.15540000 3.25886000e-02
-11.12540000 3.22633000e-02
-11.09540000 3.40422000e-02
-11.06540000 3.75540000e-02
-11.03540000 4.45668000e-02
-11.00540000 5.78391000e-02
-10.97540000 7.33961000e-02
-10.94540000 8.91158000e-02
-10.91540000 9.88289000e-02
-10.88540000 9.10203000e-02
-10.85540000 8.21497000e-02
-10.82540000 7.79589000e-02
-10.79540000 8.07680000e-02
-10.76540000 9.02288000e-02
-10.73540000 8.81391000e-02
-10.70540000 7.84520000e-02
-10.67540000 6.67204000e-02
-10.64540000 5.61418000e-02
-10.61540000 5.39834000e-02
-10.58540000 6.07149000e-02
-10.55540000 7.22934000e-02
-10.52540000 6.90592000e-02
-10.49540000 5.35696000e-02
-10.46540000 4.24673000e-02
-10.43540000 3.77350000e-02
-10.40540000 3.67121000e-02
-10.37540000 3.69248000e-02
-10.34540000 3.64306000e-02
-10.31540000 3.56244000e-02
-10.28540000 3.47768000e-02
-10.25540000 3.38493000e-02
-10.22540000 3.33788000e-02
-10.19150000 3.31102800e-02
-10.16150000 3.44647500e-02
-10.13150000 3.86859700e-02
-10.10150000 4.51050000e-02
-10.07150000 5.03464000e-02
-10.04150000 5.67139000e-02
-10.01150000 6.14659000e-02
-9.98146000 6.49404000e-02
-9.95146000 6.48714000e-02
-9.92146000 6.14161000e-02
-9.89146000 6.28359000e-02
-9.86146000 6.05378000e-02
-9.83146000 4.97969000e-02
-9.80146000 4.11725000e-02
-9.77146000 3.66522000e-02
-9.74146000 3.49013000e-02
-9.71146000 3.48898000e-02
-9.68146000 3.61720000e-02
-9.65146000 3.87234000e-02
-9.62146000 4.09376000e-02
-9.59146000 4.25111000e-02
-9.56146000 4.60203000e-02
-9.53146000 5.26252000e-02
-9.50146000 6.10742000e-02
-9.47146000 7.39706000e-02
-9.44146000 8.92509000e-02
-9.41146000 1.09759100e-01
-9.38146000 1.47917800e-01
-9.35146000 1.82545900e-01
-9.32146000 1.78065000e-01
-9.29146000 1.48153900e-01
-9.26146000 1.33095400e-01
-9.23146000 1.36977700e-01
-9.20146000 1.58301400e-01
-9.17146000 1.96387800e-01
-9.14146000 1.95013200e-01
-9.11146000 1.45277400e-01
-9.08146000 1.06176900e-01
-9.05146000 8.34855000e-02
-9.02146000 7.27239000e-02
-8.99146000 6.90709000e-02
-8.96146000 7.35234000e-02
-8.93146000 8.56090000e-02
-8.90146000 9.34686000e-02
-8.87146000 8.84785000e-02
-8.84146000 8.47122000e-02
-8.81146000 9.07170000e-02
-8.78146000 1.07072700e-01
-8.75146000 1.39946400e-01
-8.72146000 1.61983200e-01
-8.69146000 1.32355200e-01
-8.66146000 1.07238600e-01
-8.63146000 9.38089000e-02
-8.60146000 8.03754000e-02
-8.57146000 7.22030000e-02
-8.54146000 6.80588000e-02
-8.51146000 6.79232000e-02
-8.48146000 7.25359000e-02
-8.45146000 6.94588000e-02
-8.42146000 6.30038000e-02
-8.39146000 6.08839000e-02
-8.35750000 6.12171000e-02
-8.32750000 6.59412000e-02
-8.29750000 7.64871000e-02
-8.26750000 9.13396000e-02
-8.23750000 1.08181700e-01
-8.20750000 1.13900600e-01
-8.17750000 1.06323300e-01
-8.14750000 9.44408000e-02
-8.11750000 8.49257000e-02
-8.08750000 8.37200000e-02
-8.05750000 8.57308000e-02
-8.02750000 9.03773000e-02
-7.99750000 9.65267000e-02
-7.96750000 9.93667000e-02
-7.93750000 1.00222500e-01
-7.90750000 1.04346900e-01
-7.87750000 1.18546800e-01
-7.84750000 1.43436200e-01
-7.81750000 1.58656500e-01
-7.78750000 1.58311600e-01
-7.75750000 1.45111100e-01
-7.72750000 1.50914000e-01
-7.69750000 1.76707500e-01
-7.66750000 1.88685500e-01
-7.63750000 2.07501800e-01
-7.60750000 2.55894800e-01
-7.57750000 2.68364200e-01
-7.54750000 2.18947500e-01
-7.51750000 1.74769000e-01
-7.48750000 1.71881000e-01
-7.45750000 2.09238300e-01
-7.42750000 2.49179700e-01
-7.39750000 2.42648600e-01
-7.36750000 1.95771600e-01
-7.33750000 1.46123400e-01
-7.30750000 1.16657100e-01
-7.27750000 9.83708000e-02
-7.24750000 8.98454000e-02
-7.21750000 9.01466000e-02
-7.18750000 9.37887000e-02
-7.15750000 9.68233000e-02
-7.12750000 9.56698000e-02
-7.09750000 9.54422000e-02
-7.06750000 9.36920000e-02
-7.03750000 9.20934000e-02
-7.00750000 8.80249000e-02
-6.97750000 8.78894000e-02
-6.94750000 9.64712000e-02
-6.91750000 1.12029200e-01
-6.88750000 1.23567600e-01
-6.85750000 1.21059600e-01
-6.82750000 1.14504900e-01
-6.79750000 1.16966000e-01
-6.76750000 1.25265900e-01
-6.73750000 1.34398100e-01
-6.70750000 1.36076800e-01
-6.67750000 1.45382300e-01
-6.64750000 1.67064000e-01
-6.61750000 1.90220700e-01
-6.58750000 1.97469600e-01
-6.55750000 2.05479200e-01
-6.52355000 2.36507400e-01
-6.49355000 2.93523200e-01
-6.46355000 3.78483000e-01
-6.43355000 4.71531000e-01
-6.40355000 6.22282000e-01
-6.37355000 8.35901000e-01
-6.34355000 1.09656200e+00
-6.31355000 1.05774500e+00
-6.28355000 8.34440000e-01
-6.25355000 6.76823000e-01
-6.22355000 5.36452600e-01
-6.19355000 3.84691800e-01
-6.16355000 2.81455000e-01
-6.13355000 2.24021400e-01
-6.10355000 2.00330300e-01
-6.07355000 1.97091500e-01
-6.04355000 2.09391400e-01
-6.01355000 2.23236700e-01
-5.98355000 2.08544700e-01
-5.95355000 1.93401000e-01
-5.92355000 1.82941700e-01
-5.89355000 1.79799000e-01
-5.86355000 1.85954000e-01
-5.83355000 1.89954000e-01
-5.80355000 1.95226000e-01
-5.77355000 1.93615800e-01
-5.74355000 1.89770400e-01
-5.71355000 1.95502600e-01
-5.68355000 2.11608400e-01
-5.65355000 2.43662000e-01
-5.62355000 3.00708600e-01
-5.59355000 4.02323800e-01
-5.56355000 5.92893600e-01
-5.53355000 9.58491400e-01
-5.50355000 1.36951780e+00
-5.47355000 1.19092100e+00
-5.44355000 7.96103800e-01
-5.41355000 5.95412400e-01
-5.38355000 5.44289200e-01
-5.35355000 5.96759400e-01
-5.32355000 6.46428400e-01
-5.29355000 5.81784800e-01
-5.26355000 5.22249600e-01
-5.23355000 5.38262200e-01
-5.20355000 5.27444600e-01
-5.17355000 5.20535000e-01
-5.14355000 5.98475600e-01
-5.11355000 7.93940200e-01
-5.08355000 1.10987700e+00
-5.05355000 1.21496900e+00
-5.02355000 1.11083500e+00
-4.99355000 1.07902400e+00
-4.96355000 9.85272000e-01
-4.93355000 7.54877000e-01
-4.90355000 6.08757000e-01
-4.87355000 5.48103000e-01
-4.84355000 5.30918000e-01
-4.81355000 5.22002000e-01
-4.78355000 4.98080000e-01
-4.75355000 4.94998000e-01
-4.72355000 5.36780000e-01
-4.68959000 6.57134000e-01
-4.65959000 8.69170000e-01
-4.62959000 1.25988100e+00
-4.59959000 1.93863800e+00
-4.56959000 2.55572600e+00
-4.53959000 2.47492400e+00
-4.50959000 2.52382700e+00
-4.47959000 3.11520400e+00
-4.44959000 3.61252200e+00
-4.41959000 3.01316600e+00
-4.38959000 2.13663600e+00
-4.35959000 1.54857400e+00
-4.32959000 1.26783200e+00
-4.29959000 1.20551200e+00
-4.26959000 1.37199200e+00
-4.23959000 1.69178700e+00
-4.20959000 1.84511300e+00
-4.17959000 2.14706300e+00
-4.14959000 2.87974500e+00
-4.11959000 3.84980600e+00
-4.08959000 3.85730800e+00
-4.05959000 2.66221300e+00
-4.02959000 1.81292900e+00
-3.99959000 1.46565000e+00
-3.96959000 1.40872900e+00
-3.93959000 1.43953600e+00
-3.90959000 1.52537800e+00
-3.87959000 1.75231700e+00
-3.84959000 1.93019200e+00
-3.81959000 2.07697100e+00
-3.78959000 2.24225500e+00
-3.75959000 2.42237000e+00
-3.72959000 3.06102600e+00
-3.69959000 4.48347000e+00
-3.66959000 5.98707000e+00
-3.63959000 6.24905000e+00
-3.60959000 5.51777000e+00
-3.57959000 5.58307300e+00
-3.54959000 5.42769600e+00
-3.51959000 3.93999200e+00
-3.48959000 2.75142900e+00
-3.45959000 2.20112300e+00
-3.42959000 1.85242300e+00
-3.39959000 1.66034500e+00
-3.36959000 1.67461800e+00
-3.33959000 1.81938000e+00
-3.30959000 2.05570600e+00
-3.27959000 2.54986600e+00
-3.24959000 3.40252200e+00
-3.21959000 4.82671800e+00
-3.18959000 6.90742000e+00
-3.15959000 7.76551000e+00
-3.12959000 8.00901000e+00
-3.09959000 1.04249000e+01
-3.06959000 1.24737370e+01
-3.03959000 9.90676700e+00
-3.00959000 7.34911700e+00
-2.97959000 5.24209400e+00
-2.94959000 3.71449800e+00
-2.91959000 2.92247200e+00
-2.88959000 2.43225100e+00
-2.85564000 2.22523600e+00
-2.82564000 2.20024600e+00
-2.79564000 1.96079400e+00
-2.76564000 1.68567300e+00
-2.73564000 1.62053400e+00
-2.70564000 1.72662400e+00
-2.67564000 1.79873400e+00
-2.64564000 1.82138600e+00
-2.61564000 2.03381800e+00
-2.58564000 2.61880600e+00
-2.55564000 3.31469800e+00
-2.52564000 3.52046600e+00
-2.49564000 3.63896300e+00
-2.46564000 3.72036600e+00
-2.43564000 4.37660800e+00
-2.40564000 5.88657900e+00
-2.37564000 8.82563500e+00
-2.34564000 1.15755820e+01
-2.31564000 9.59975000e+00
-2.28564000 6.21839370e+00
-2.25564000 3.92460800e+00
-2.22564000 2.76754900e+00
-2.19564000 2.24205400e+00
-2.16564000 2.11274300e+00
-2.13564000 1.96473000e+00
-2.10564000 1.58074100e+00
-2.07564000 1.24692300e+00
-2.04564000 1.01587800e+00
-2.01564000 8.79451000e-01
-1.98564000 7.96871000e-01
-1.95564000 7.71015000e-01
-1.92564000 8.05605000e-01
-1.89564000 8.61540000e-01
-1.86564000 9.34290000e-01
-1.83564000 1.08374900e+00
-1.80564000 1.24412300e+00
-1.77564000 1.26116300e+00
-1.74564000 1.10002900e+00
-1.71564000 9.91609000e-01
-1.68564000 1.01425800e+00
-1.65564000 1.11987700e+00
-1.62564000 1.32420800e+00
-1.59564000 1.59387600e+00
-1.56564000 1.89372900e+00
-1.53564000 2.29685200e+00
-1.50564000 2.97299300e+00
-1.47564000 3.91149600e+00
-1.44564000 5.24279800e+00
-1.41564000 5.11391500e+00
-1.38564000 3.95325400e+00
-1.35564000 3.26352300e+00
-1.32564000 2.38801800e+00
-1.29564000 1.70913900e+00
-1.26564000 1.39235500e+00
-1.23564000 1.17928400e+00
-1.20564000 9.92961000e-01
-1.17564000 9.13577000e-01
-1.14564000 8.41085000e-01
-1.11564000 7.69130000e-01
-1.08564000 7.57289000e-01
-1.05564000 8.20872000e-01
-1.02168000 1.03076700e+00
-0.99168400 1.24767500e+00
-0.96168400 1.14575300e+00
-0.93168400 9.13185000e-01
-0.90168400 7.42839000e-01
-0.87168400 6.59215000e-01
-0.84168400 6.57886000e-01
-0.81168400 6.73251000e-01
-0.78168400 6.89702000e-01
-0.75168400 7.45014000e-01
-0.72168400 8.38883000e-01
-0.69168400 1.00614900e+00
-0.66168400 1.26587800e+00
-0.63168400 1.54133600e+00
-0.60168400 1.67163700e+00
-0.57168400 1.90031200e+00
-0.54168400 2.28635600e+00
-0.51168400 2.32044600e+00
-0.48168400 1.75211600e+00
-0.45168400 1.27783800e+00
-0.42168400 1.05655800e+00
-0.39168400 1.02486700e+00
-0.36168400 1.10510300e+00
-0.33168400 1.17974500e+00
-0.30168400 1.22585800e+00
-0.27168400 1.37720800e+00
-0.24168400 1.69046300e+00
-0.21168400 1.91972200e+00
-0.18168400 1.94634300e+00
-0.15168400 2.13330900e+00
-0.12168400 2.58584200e+00
-0.09168430 2.83134800e+00
-0.06168430 2.80516200e+00
-0.03168430 2.79641600e+00
-0.00168432 2.83673600e+00
0.02831570 3.09184000e+00
0.05831570 3.42275000e+00
0.08831570 3.56535000e+00
0.11831600 3.23185000e+00
0.14831600 2.93618400e+00
0.17831600 2.41269400e+00
0.20831600 1.90957500e+00
0.23831600 1.70531100e+00
0.26831600 1.66390100e+00
0.29831600 1.49430800e+00
0.32831600 1.30831400e+00
0.35831600 1.22275000e+00
0.38831600 1.22934200e+00
0.41831600 1.34684000e+00
0.44831600 1.57707500e+00
0.47831600 1.70802200e+00
0.50831600 1.78313800e+00
0.53831600 2.03446300e+00
0.56831600 2.54798700e+00
0.59831600 3.14780000e+00
0.62831600 3.53338000e+00
0.65831600 3.78117000e+00
0.68831600 3.66263000e+00
0.71831600 2.98847300e+00
0.74831600 2.42644600e+00
0.77831600 2.31706100e+00
