# E(MeV)  S_NSDRNSDR(K=0) for At227_DDPCX
-4.47148000 4.34404000e-02
-4.44148000 4.66813000e-02
-4.41148000 4.99929000e-02
-4.38148000 5.33809000e-02
-4.35148000 5.68516000e-02
-4.32148000 6.04117000e-02
-4.29148000 6.40684000e-02
-4.26148000 6.78294000e-02
-4.23148000 7.17033000e-02
-4.20148000 7.56990000e-02
-4.17148000 7.98267000e-02
-4.14148000 8.40972000e-02
-4.11148000 8.85223000e-02
-4.08148000 9.31152000e-02
-4.05148000 9.78902000e-02
-4.02148000 1.02863000e-01
-3.99148000 1.08052000e-01
-3.94310000 1.16924000e-01
-3.91310000 1.22776000e-01
-3.88310000 1.28928000e-01
-3.85310000 1.35409000e-01
-3.82310000 1.42256000e-01
-3.79310000 1.49510000e-01
-3.76310000 1.57219000e-01
-3.73310000 1.65441000e-01
-3.70310000 1.74246000e-01
-3.67310000 1.83721000e-01
-3.64310000 1.93978000e-01
-3.61310000 2.05166000e-01
-3.58310000 2.17493000e-01
-3.55310000 2.31260000e-01
-3.52310000 2.46946000e-01
-3.49310000 2.65359000e-01
-3.46310000 2.88002000e-01
-3.41473000 3.42541000e-01
-3.38473000 4.01752000e-01
-3.35473000 4.98762000e-01
-3.32473000 5.85492000e-01
-3.29473000 5.48504000e-01
-3.26473000 4.97689000e-01
-3.23473000 4.86369000e-01
-3.20473000 4.99715000e-01
-3.17473000 5.27352000e-01
-3.14473000 5.65273000e-01
-3.11473000 6.12441000e-01
-3.08473000 6.69298000e-01
-3.05473000 7.37250000e-01
-3.02473000 8.18579000e-01
-2.99473000 9.16579000e-01
-2.96473000 1.03589000e+00
-2.93473000 1.18305000e+00
-2.88635000 1.50453000e+00
-2.85635000 1.78105000e+00
-2.82635000 2.14784000e+00
-2.79635000 2.64901000e+00
-2.76635000 3.35890000e+00
-2.73635000 4.40977000e+00
-2.70635000 6.05307000e+00
-2.67635000 8.80417000e+00
-2.64635000 1.38032000e+01
-2.61635000 2.36364000e+01
-2.58635000 4.23763000e+01
-2.55635000 6.01503000e+01
-2.52635000 4.65069000e+01
-2.49635000 2.62697000e+01
-2.46635000 1.52024000e+01
-2.43635000 9.65128000e+00
-2.40635000 6.66929000e+00
-2.35798000 4.23115000e+00
-2.32798000 3.42484000e+00
-2.29798000 2.90450000e+00
-2.26798000 2.57269000e+00
-2.23798000 2.37725000e+00
-2.20798000 2.29244000e+00
-2.17798000 2.31102000e+00
-2.14798000 2.44304000e+00
-2.11798000 2.72076000e+00
-2.08798000 3.21354000e+00
-2.05798000 4.06400000e+00
-2.02798000 5.57698000e+00
-1.99798000 8.44247000e+00
-1.96798000 1.41872000e+01
-1.93798000 2.43583000e+01
-1.90798000 2.96928000e+01
-1.87798000 2.04217000e+01
-1.82960000 9.09474000e+00
-1.79960000 6.63529000e+00
-1.76960000 5.94760000e+00
-1.73960000 6.79565000e+00
-1.70960000 9.19161000e+00
-1.67960000 9.81060000e+00
-1.64960000 6.69739000e+00
-1.61960000 4.22333000e+00
-1.58960000 2.92726000e+00
-1.55960000 2.23367000e+00
-1.52960000 1.83178000e+00
-1.49960000 1.58353000e+00
-1.46960000 1.42456000e+00
-1.43960000 1.32263000e+00
-1.40960000 1.26087000e+00
-1.37960000 1.23068000e+00
-1.34960000 1.22815000e+00
-1.30123000 1.27625000e+00
-1.27123000 1.35058000e+00
-1.24123000 1.48046000e+00
-1.21123000 1.67742000e+00
-1.18123000 1.95268000e+00
-1.15123000 2.45850000e+00
-1.12123000 3.47303000e+00
-1.09123000 5.11817000e+00
-1.06123000 5.57417000e+00
-1.03123000 4.16013000e+00
-1.00123000 3.16438000e+00
-0.97123000 2.79816000e+00
-0.94123000 2.81346000e+00
-0.91123000 3.12697000e+00
-0.88123000 3.57409000e+00
-0.85123000 3.71565000e+00
-0.82123000 3.87941000e+00
-0.77285500 4.81763000e+00
-0.74285500 5.92294000e+00
-0.71285500 7.68387000e+00
-0.68285500 1.06396000e+01
-0.65285500 1.60031000e+01
-0.62285500 2.60612000e+01
-0.59285500 3.95632000e+01
-0.56285500 4.17717000e+01
-0.53285500 3.74283000e+01
-0.50285500 4.20367000e+01
-0.47285500 6.18978000e+01
-0.44285500 8.60489000e+01
-0.41285500 7.10120000e+01
-0.38285500 4.27905000e+01
-0.35285500 2.74397000e+01
-0.32285500 2.09971000e+01
-0.29285500 1.98784000e+01
-0.24448000 2.89062000e+01
-0.21448000 4.05886000e+01
-0.18448000 5.15598000e+01
-0.15448000 4.86982000e+01
-0.12448000 3.08204000e+01
-0.09447980 1.82991000e+01
-0.06447980 1.18397000e+01
-0.03447980 8.38211000e+00
-0.00447985 6.37233000e+00
0.02552020 5.12100000e+00
0.05552020 4.30461000e+00
0.08552020 3.75974000e+00
0.11552000 3.39935000e+00
0.14552000 3.17644000e+00
0.17552000 3.06783000e+00
0.20552000 3.06737000e+00
0.23552000 3.18497000e+00
0.28389500 3.71331000e+00
0.31389500 4.38112000e+00
0.34389500 5.53453000e+00
0.37389500 7.61751000e+00
0.40389500 1.16314000e+01
0.43389500 1.93404000e+01
0.46389500 2.83901000e+01
0.49389500 2.63163000e+01
0.52389500 2.17717000e+01
0.55389500 2.41133000e+01
0.58389500 2.79320000e+01
0.61389500 2.38009000e+01
0.64389500 1.67853000e+01
0.67389500 1.14956000e+01
0.70389500 8.10214000e+00
0.73389500 5.80725000e+00
0.76389500 4.48613000e+00
