# E(MeV)  S_NSDRNSDR(K=0) for Au213_DDPCX
-7.28688000 -4.28789000e-02
-7.25688000 -4.06247000e-02
-7.22688000 -3.83921000e-02
-7.19688000 -3.61798000e-02
-7.16688000 -3.39866000e-02
-7.13688000 -3.18114000e-02
-7.10688000 -2.96529000e-02
-7.07688000 -2.75100000e-02
-7.04688000 -2.53816000e-02
-7.01688000 -2.32664000e-02
-6.98688000 -2.11635000e-02
-6.95688000 -1.90715000e-02
-6.92688000 -1.69894000e-02
-6.89688000 -1.49161000e-02
-6.86688000 -1.28504000e-02
-6.83688000 -1.07912000e-02
-6.80688000 -8.73733000e-03
-6.77688000 -6.68771000e-03
-6.74688000 -4.64116000e-03
-6.71688000 -2.59651000e-03
-6.68688000 -5.52606000e-04
-6.65688000 1.49175000e-03
-6.62688000 3.53776000e-03
-6.59688000 5.58664000e-03
-6.56688000 7.63964000e-03
-6.53688000 9.69803000e-03
-6.47696000 1.38303000e-02
-6.44696000 1.59127000e-02
-6.41696000 1.80059000e-02
-6.38696000 2.01113000e-02
-6.35696000 2.22303000e-02
-6.32696000 2.43646000e-02
-6.29696000 2.65158000e-02
-6.26696000 2.86854000e-02
-6.23696000 3.08753000e-02
-6.20696000 3.30875000e-02
-6.17696000 3.53242000e-02
-6.14696000 3.75881000e-02
-6.11696000 3.98827000e-02
-6.08696000 4.22070000e-02
-6.05696000 4.45520000e-02
-6.02696000 4.69284000e-02
-5.99696000 4.93446000e-02
-5.96696000 5.18020000e-02
-5.93696000 5.43021000e-02
-5.90696000 5.68473000e-02
-5.87696000 5.94404000e-02
-5.84696000 6.20844000e-02
-5.81696000 6.47826000e-02
-5.78696000 6.75386000e-02
-5.75696000 7.03563000e-02
-5.72696000 7.32396000e-02
-5.66705000 7.92122000e-02
-5.63705000 8.23195000e-02
-5.60705000 8.55119000e-02
-5.57705000 8.87949000e-02
-5.54705000 9.21750000e-02
-5.51705000 9.56586000e-02
-5.48705000 9.92532000e-02
-5.45705000 1.02966000e-01
-5.42705000 1.06807000e-01
-5.39705000 1.10784000e-01
-5.36705000 1.14908000e-01
-5.33705000 1.19189000e-01
-5.30705000 1.23641000e-01
-5.27705000 1.28275000e-01
-5.24705000 1.33107000e-01
-5.21705000 1.38153000e-01
-5.18705000 1.43430000e-01
-5.15705000 1.48959000e-01
-5.12705000 1.54761000e-01
-5.09705000 1.60860000e-01
-5.06705000 1.67284000e-01
-5.03705000 1.74064000e-01
-5.00705000 1.81233000e-01
-4.97705000 1.88831000e-01
-4.94705000 1.96901000e-01
-4.91705000 2.05494000e-01
-4.85713000 2.24453000e-01
-4.82713000 2.34987000e-01
-4.79713000 2.46327000e-01
-4.76713000 2.58574000e-01
-4.73713000 2.71846000e-01
-4.70713000 2.86280000e-01
-4.67713000 3.02039000e-01
-4.64713000 3.19318000e-01
-4.61713000 3.38347000e-01
-4.58713000 3.59406000e-01
-4.55713000 3.82833000e-01
-4.52713000 4.09042000e-01
-4.49713000 4.38546000e-01
-4.46713000 4.71983000e-01
-4.43713000 5.10155000e-01
-4.40713000 5.54090000e-01
-4.37713000 6.05109000e-01
-4.34713000 6.64948000e-01
-4.31713000 7.35910000e-01
-4.28713000 8.21117000e-01
-4.25713000 9.24876000e-01
-4.22713000 1.05327000e+00
-4.19713000 1.21508000e+00
-4.16713000 1.42342000e+00
-4.13713000 1.69847000e+00
-4.10713000 2.07256000e+00
-4.04722000 3.37399000e+00
-4.01722000 4.58034000e+00
-3.98722000 6.58692000e+00
-3.95722000 1.02075000e+01
-3.92722000 1.72934000e+01
-3.89722000 3.09564000e+01
-3.86722000 4.53284000e+01
-3.83722000 3.66067000e+01
-3.80722000 2.10586000e+01
-3.77722000 1.22707000e+01
-3.74722000 7.83283000e+00
-3.71722000 5.50208000e+00
-3.68722000 4.23647000e+00
-3.65722000 3.59629000e+00
-3.62722000 3.33362000e+00
-3.59722000 3.12396000e+00
-3.56722000 3.09509000e+00
-3.53722000 3.42287000e+00
-3.50722000 4.02105000e+00
-3.47722000 3.84016000e+00
-3.44722000 3.36947000e+00
-3.41722000 3.47165000e+00
-3.38722000 3.24224000e+00
-3.35722000 2.49923000e+00
-3.32722000 2.04795000e+00
-3.29722000 1.89350000e+00
-3.23730000 2.08333000e+00
-3.20730000 2.48765000e+00
-3.17730000 3.36880000e+00
-3.14730000 4.65740000e+00
-3.11730000 4.85997000e+00
-3.08730000 3.89668000e+00
-3.05730000 3.09828000e+00
-3.02730000 2.75389000e+00
-2.99730000 2.74918000e+00
-2.96730000 3.00687000e+00
-2.93730000 3.55078000e+00
-2.90730000 4.52405000e+00
-2.87730000 6.22919000e+00
-2.84730000 9.42977000e+00
-2.81730000 1.56083000e+01
-2.78730000 2.26356000e+01
-2.75730000 1.98811000e+01
-2.72730000 1.28359000e+01
-2.69730000 8.93289000e+00
-2.66730000 7.43684000e+00
-2.63730000 7.34549000e+00
-2.60730000 8.43898000e+00
-2.57730000 1.11813000e+01
-2.54730000 1.70364000e+01
-2.51730000 2.81573000e+01
-2.48730000 3.71845000e+01
-2.42739000 1.81458000e+01
-2.39739000 1.32675000e+01
-2.36739000 1.19525000e+01
-2.33739000 1.23252000e+01
-2.30739000 1.17709000e+01
-2.27739000 1.12412000e+01
-2.24739000 1.20870000e+01
-2.21739000 1.44318000e+01
-2.18739000 1.86075000e+01
-2.15739000 2.56977000e+01
-2.12739000 3.88453000e+01
-2.09739000 6.27453000e+01
-2.06739000 9.64595000e+01
-2.03739000 1.39321000e+02
-2.00739000 1.70682000e+02
-1.97739000 1.26609000e+02
-1.94739000 7.25626000e+01
-1.91739000 4.36662000e+01
-1.88739000 2.96672000e+01
-1.85739000 2.33088000e+01
-1.82739000 2.21441000e+01
-1.79739000 2.59063000e+01
-1.76739000 2.87093000e+01
-1.73739000 2.14127000e+01
-1.70739000 1.40823000e+01
-1.67739000 1.02839000e+01
-1.61747000 8.17582000e+00
-1.58747000 7.12027000e+00
-1.55747000 5.58858000e+00
-1.52747000 4.55437000e+00
-1.49747000 4.04832000e+00
-1.46747000 3.95889000e+00
-1.43747000 4.37494000e+00
-1.40747000 5.55422000e+00
-1.37747000 6.75650000e+00
-1.34747000 5.62515000e+00
-1.31747000 3.99934000e+00
-1.28747000 3.12538000e+00
-1.25747000 2.74602000e+00
-1.22747000 2.67095000e+00
-1.19747000 2.88023000e+00
-1.16747000 3.49143000e+00
-1.13747000 4.60341000e+00
-1.10747000 6.21075000e+00
-1.07747000 8.35953000e+00
-1.04747000 7.74885000e+00
-1.01747000 5.10349000e+00
-0.98747500 3.45113000e+00
-0.95747500 2.66628000e+00
-0.92747500 2.34552000e+00
-0.89747500 2.28448000e+00
-0.86747500 2.18456000e+00
-0.80756000 1.98867000e+00
-0.77756000 2.13785000e+00
-0.74756000 2.52168000e+00
-0.71756000 3.16518000e+00
-0.68756000 3.50646000e+00
-0.65756000 3.50810000e+00
-0.62756000 3.91995000e+00
-0.59756000 4.51293000e+00
-0.56756000 5.26740000e+00
-0.53756000 7.06220000e+00
-0.50756000 1.09663000e+01
-0.47756000 1.86324000e+01
-0.44756000 2.65498000e+01
-0.41756000 2.17987000e+01
-0.38756000 1.36293000e+01
-0.35756000 9.17999000e+00
-0.32756000 7.30452000e+00
-0.29756000 6.77904000e+00
-0.26756000 7.62543000e+00
-0.23756000 9.36687000e+00
-0.20756000 9.05290000e+00
-0.17756000 7.28873000e+00
-0.14756000 6.31738000e+00
-0.11756000 6.54472000e+00
-0.08755970 7.98595000e+00
-0.05755970 1.11528000e+01
0.00235513 2.53167000e+01
0.03235510 3.74318000e+01
0.06235510 3.66366000e+01
0.09235510 2.69922000e+01
0.12235500 2.13170000e+01
0.15235500 2.07862000e+01
0.18235500 2.03258000e+01
0.21235500 1.43599000e+01
0.24235500 9.70339000e+00
0.27235500 7.60430000e+00
0.30235500 6.62112000e+00
0.33235500 6.49525000e+00
0.36235500 6.93090000e+00
0.39235500 7.18781000e+00
0.42235500 8.42391000e+00
0.45235500 9.00320000e+00
0.48235500 7.10945000e+00
0.51235500 5.24671000e+00
0.54235500 4.34695000e+00
0.57235500 4.17768000e+00
0.60235500 4.55791000e+00
0.63235500 5.54613000e+00
0.66235500 7.51930000e+00
0.69235500 1.14733000e+01
0.72235500 1.95052000e+01
0.75235500 3.22018000e+01
