# E(MeV)  S_GAMTGAMT(Total=K0+2*K1) for Cf317_DDPCX
-15.28400000 9.16034000e-03
-15.25400000 9.19486000e-03
-15.22400000 9.22969000e-03
-15.19400000 9.26486000e-03
-15.16400000 9.30038000e-03
-15.13400000 9.33625000e-03
-15.10400000 9.37255000e-03
-15.07400000 9.40924000e-03
-15.04400000 9.44640000e-03
-15.01400000 9.48401000e-03
-14.98400000 9.52215000e-03
-14.95400000 9.56083000e-03
-14.92400000 9.60008000e-03
-14.89400000 9.63996000e-03
-14.86400000 9.68051000e-03
-14.83400000 9.72177000e-03
-14.80400000 9.76382000e-03
-14.77400000 9.80672000e-03
-14.74400000 9.85053000e-03
-14.71400000 9.89533000e-03
-14.68400000 9.94123000e-03
-14.65400000 9.98835000e-03
-14.62400000 1.00368000e-02
-14.59400000 1.00867700e-02
-14.56400000 1.01384200e-02
-14.53400000 1.01921000e-02
-14.50400000 1.02481900e-02
-14.47400000 1.03074800e-02
-14.44400000 1.03713900e-02
-14.41400000 1.04427000e-02
-14.38400000 1.05211500e-02
-14.35400000 1.05882900e-02
-14.32400000 1.06466800e-02
-14.29400000 1.07144100e-02
-14.26400000 1.07918400e-02
-14.23400000 1.08775700e-02
-14.20400000 1.09716000e-02
-14.17400000 1.10748900e-02
-14.14400000 1.11890200e-02
-14.11400000 1.13163100e-02
-14.08400000 1.14599100e-02
-14.05400000 1.16241000e-02
-14.02400000 1.18150500e-02
-13.99400000 1.20415400e-02
-13.96400000 1.23168800e-02
-13.93400000 1.26618400e-02
-13.90400000 1.31109500e-02
-13.87400000 1.37251900e-02
-13.84400000 1.46210500e-02
-13.81400000 1.60409300e-02
-13.78400000 1.85241400e-02
-13.75400000 2.31550000e-02
-13.72400000 2.98879200e-02
-13.67440000 2.76945600e-02
-13.64440000 2.47683400e-02
-13.61440000 2.53765300e-02
-13.58440000 2.95539100e-02
-13.55440000 3.92335400e-02
-13.52440000 5.88912900e-02
-13.49440000 8.37388900e-02
-13.46440000 7.95381000e-02
-13.43440000 6.35350000e-02
-13.40440000 5.33245000e-02
-13.37440000 4.03657000e-02
-13.34440000 3.05952800e-02
-13.31440000 2.57752500e-02
-13.28440000 2.40221500e-02
-13.25440000 2.44763700e-02
-13.22440000 2.69667900e-02
-13.19440000 2.96647400e-02
-13.16440000 3.24734000e-02
-13.13440000 4.01716000e-02
-13.10440000 5.59400000e-02
-13.07440000 6.78619000e-02
-13.04440000 5.64636000e-02
-13.01440000 4.55378000e-02
-12.98440000 4.44590000e-02
-12.95440000 4.56254000e-02
-12.92440000 4.60911000e-02
-12.89440000 4.41962000e-02
-12.86440000 3.59013900e-02
-12.83440000 2.96072500e-02
-12.80440000 2.78679700e-02
-12.77440000 2.88003800e-02
-12.74440000 2.78494600e-02
-12.71440000 2.66492100e-02
-12.68440000 2.83820600e-02
-12.65440000 3.43903000e-02
-12.62440000 4.77368000e-02
-12.59440000 6.88264000e-02
-12.56440000 7.63140000e-02
-12.53440000 5.67767000e-02
-12.50440000 3.83840000e-02
-12.47440000 2.87001100e-02
-12.44440000 2.38417200e-02
-12.41440000 2.10805000e-02
-12.38440000 1.94735700e-02
-12.35440000 1.86690700e-02
-12.32440000 1.82238400e-02
-12.29440000 1.78062600e-02
-12.26440000 1.75349000e-02
-12.23440000 1.73989200e-02
-12.20440000 1.75897100e-02
-12.17440000 1.80556600e-02
-12.14440000 1.83042600e-02
-12.11440000 1.85194200e-02
-12.06480000 1.99224900e-02
-12.03480000 2.16861000e-02
-12.00480000 2.41464400e-02
-11.97480000 2.78182800e-02
-11.94480000 3.41505000e-02
-11.91480000 4.45369000e-02
-11.88480000 5.30868000e-02
-11.85480000 5.44456000e-02
-11.82480000 5.12809000e-02
-11.79480000 5.05137000e-02
-11.76480000 5.89492000e-02
-11.73480000 7.72876000e-02
-11.70480000 8.39825000e-02
-11.67480000 8.06206000e-02
-11.64480000 7.03747000e-02
-11.61480000 5.28667000e-02
-11.58480000 4.26629000e-02
-11.55480000 3.96454000e-02
-11.52480000 4.23238000e-02
-11.49480000 4.55933000e-02
-11.46480000 4.14665800e-02
-11.43480000 3.85564000e-02
-11.40480000 4.12213000e-02
-11.37480000 4.70117000e-02
-11.34480000 5.17062000e-02
-11.31480000 6.05252000e-02
-11.28480000 7.98136000e-02
-11.25480000 8.61811000e-02
-11.22480000 7.13758000e-02
-11.19480000 6.61781000e-02
-11.16480000 6.46115000e-02
-11.13480000 5.49073000e-02
-11.10480000 4.45547000e-02
-11.07480000 3.63499000e-02
-11.04480000 3.17542200e-02
-11.01480000 2.90892600e-02
-10.98480000 2.79106800e-02
-10.95480000 2.91610000e-02
-10.92480000 3.32198400e-02
-10.89480000 3.54114800e-02
-10.86480000 3.20810600e-02
-10.83480000 3.10645400e-02
-10.80480000 3.24867800e-02
-10.77480000 3.12557400e-02
-10.74480000 2.82940200e-02
-10.71480000 2.53295400e-02
-10.68480000 2.34471000e-02
-10.65480000 2.30127000e-02
-10.62480000 2.38187700e-02
-10.59480000 2.55664900e-02
-10.56480000 2.68263500e-02
-10.53480000 2.76521600e-02
-10.50480000 2.88833400e-02
-10.45510000 3.32763600e-02
-10.42510000 3.89218000e-02
-10.39510000 4.90871800e-02
-10.36510000 5.50742000e-02
-10.33510000 4.56830000e-02
-10.30510000 3.70251400e-02
-10.27510000 3.37638000e-02
-10.24510000 3.25549000e-02
-10.21510000 3.15621800e-02
-10.18510000 3.05683400e-02
-10.15510000 2.87202700e-02
-10.12510000 2.73378600e-02
-10.09510000 2.77587400e-02
-10.06510000 2.96115400e-02
-10.03510000 3.15018000e-02
-10.00510000 3.43938000e-02
-9.97513000 3.72253000e-02
-9.94513000 3.85214000e-02
-9.91513000 4.31872000e-02
-9.88513000 5.37372000e-02
-9.85513000 6.92192000e-02
-9.82513000 8.48673000e-02
-9.79513000 8.71314000e-02
-9.76513000 7.90246000e-02
-9.73513000 6.72018000e-02
-9.70513000 5.20364000e-02
-9.67513000 4.33551000e-02
-9.64513000 3.97498000e-02
-9.61513000 3.81536000e-02
-9.58513000 3.73691000e-02
-9.55513000 3.79150000e-02
-9.52513000 3.93010000e-02
-9.49513000 4.02520000e-02
-9.46513000 3.84435000e-02
-9.43513000 3.71432000e-02
-9.40513000 3.94508000e-02
-9.37513000 4.49554000e-02
-9.34513000 5.37064000e-02
-9.31513000 5.78121000e-02
-9.28513000 5.22240000e-02
-9.25513000 5.05120000e-02
-9.22513000 5.19648000e-02
-9.19513000 5.33721000e-02
-9.16513000 5.86261000e-02
-9.13513000 6.46009000e-02
-9.10513000 6.02152000e-02
-9.07513000 5.54574000e-02
-9.04513000 5.74576000e-02
-9.01513000 5.84120000e-02
-8.98513000 5.18958000e-02
-8.95513000 4.37518000e-02
-8.92513000 3.91311000e-02
-8.89513000 3.70448000e-02
-8.84550000 3.43947000e-02
-8.81550000 3.33320000e-02
-8.78550000 3.28531000e-02
-8.75550000 3.33536000e-02
-8.72550000 3.49708000e-02
-8.69550000 3.73613000e-02
-8.66550000 3.95123000e-02
-8.63550000 4.17873000e-02
-8.60550000 4.30203000e-02
-8.57550000 4.55533000e-02
-8.54550000 5.16925000e-02
-8.51550000 6.25418000e-02
-8.48550000 8.02284000e-02
-8.45550000 1.10144900e-01
-8.42550000 1.58802000e-01
-8.39550000 1.99194100e-01
-8.36550000 1.80342600e-01
-8.33550000 1.51378100e-01
-8.30550000 1.47140600e-01
-8.27550000 1.73998700e-01
-8.24550000 2.10329200e-01
-8.21550000 2.01856600e-01
-8.18550000 1.50071500e-01
-8.15550000 1.04642900e-01
-8.12550000 8.01805000e-02
-8.09550000 6.97709000e-02
-8.06550000 6.86668000e-02
-8.03550000 7.57217000e-02
-8.00550000 8.55869000e-02
-7.97550000 9.22506000e-02
-7.94550000 9.82908000e-02
-7.91550000 1.21610700e-01
-7.88550000 1.47598800e-01
-7.85550000 1.26685800e-01
-7.82550000 9.23465000e-02
-7.79550000 7.39711000e-02
-7.76550000 6.58704000e-02
-7.73550000 6.00442000e-02
-7.70550000 5.64054000e-02
-7.67550000 5.55593000e-02
-7.64550000 5.29389000e-02
-7.61550000 5.07024000e-02
-7.58550000 5.19764000e-02
-7.55550000 5.59266000e-02
-7.52550000 5.90933000e-02
-7.49550000 6.23765000e-02
-7.46550000 6.48742000e-02
-7.43550000 7.28471000e-02
-7.40550000 8.77112000e-02
-7.37550000 1.00752600e-01
-7.34550000 1.00717600e-01
-7.31550000 8.30539000e-02
-7.28550000 6.96309000e-02
-7.23587000 6.66834000e-02
-7.20587000 6.65534000e-02
-7.17587000 6.26555000e-02
-7.14587000 5.78096000e-02
-7.11587000 5.45406000e-02
-7.08587000 5.42219000e-02
-7.05587000 5.62232000e-02
-7.02587000 6.09852000e-02
-6.99587000 7.10080000e-02
-6.96587000 8.42352000e-02
-6.93587000 9.01830000e-02
-6.90587000 9.31915000e-02
-6.87587000 9.54108000e-02
-6.84587000 1.05801100e-01
-6.81587000 1.22701500e-01
-6.78587000 1.35963500e-01
-6.75587000 1.53188400e-01
-6.72587000 1.75338200e-01
-6.69587000 1.95225400e-01
-6.66587000 2.07077600e-01
-6.63587000 2.51769200e-01
-6.60587000 2.85380400e-01
-6.57587000 2.45492000e-01
-6.54587000 2.08172200e-01
-6.51587000 2.14115300e-01
-6.48587000 2.28081800e-01
-6.45587000 2.18622200e-01
-6.42587000 2.19051800e-01
-6.39587000 2.28624200e-01
-6.36587000 2.06520200e-01
-6.33587000 1.63005800e-01
-6.30587000 1.36707200e-01
-6.27587000 1.30332200e-01
-6.24587000 1.22929900e-01
-6.21587000 1.14219500e-01
-6.18587000 1.08019400e-01
-6.15587000 1.03812500e-01
-6.12587000 1.05391200e-01
-6.09587000 1.14468600e-01
-6.06587000 1.37483600e-01
-6.03587000 1.53707300e-01
-6.00587000 1.44321400e-01
-5.97587000 1.25854100e-01
-5.94587000 1.09555400e-01
-5.91587000 1.01520400e-01
-5.88587000 1.00764100e-01
-5.85587000 1.02662700e-01
-5.82587000 1.07516400e-01
-5.79587000 1.15407800e-01
-5.76587000 1.20931700e-01
-5.73587000 1.27925000e-01
-5.70587000 1.42075600e-01
-5.67587000 1.63068400e-01
-5.62624000 2.32786200e-01
-5.59624000 3.28533400e-01
-5.56624000 5.12637600e-01
-5.53624000 8.35352200e-01
-5.50624000 1.09641840e+00
-5.47624000 9.32664200e-01
-5.44624000 6.21356000e-01
-5.41624000 4.10032200e-01
-5.38624000 3.00647800e-01
-5.35624000 2.46448200e-01
-5.32624000 2.31877200e-01
-5.29624000 2.53516400e-01
-5.26624000 3.04291000e-01
-5.23624000 3.97738000e-01
-5.20624000 4.99589000e-01
-5.17624000 4.48369000e-01
-5.14624000 3.16074600e-01
-5.11624000 2.30353000e-01
-5.08624000 1.90101500e-01
-5.05624000 1.67653400e-01
-5.02624000 1.53334300e-01
-4.99624000 1.44125400e-01
-4.96624000 1.41679600e-01
-4.93624000 1.48097900e-01
-4.90624000 1.50656800e-01
-4.87624000 1.52282800e-01
-4.84624000 1.67592700e-01
-4.81624000 1.94416300e-01
-4.78624000 1.92871900e-01
-4.75624000 1.75909000e-01
-4.72624000 1.74968700e-01
-4.69624000 1.80325300e-01
-4.66624000 1.87605200e-01
-4.63624000 2.04741200e-01
-4.60624000 2.13585400e-01
-4.57624000 2.23027200e-01
-4.54624000 2.49017000e-01
-4.51624000 2.98001400e-01
-4.48624000 3.86038800e-01
-4.45624000 5.46375000e-01
-4.42624000 8.43285400e-01
-4.39624000 1.38317220e+00
-4.36624000 1.97766380e+00
-4.33624000 1.67950320e+00
-4.30624000 1.07683880e+00
-4.27624000 7.52821800e-01
-4.24624000 5.96431000e-01
-4.21624000 5.42173400e-01
-4.18624000 5.63840200e-01
-4.15624000 6.62103000e-01
-4.12624000 8.94219400e-01
-4.09624000 1.25891540e+00
-4.06624000 1.29025600e+00
-4.01662000 7.10312800e-01
-3.98662000 5.16130400e-01
-3.95662000 4.26108000e-01
-3.92662000 3.86333400e-01
-3.89662000 3.81340000e-01
-3.86662000 3.99152000e-01
-3.83662000 4.39116000e-01
-3.80662000 4.99031000e-01
-3.77662000 5.68789000e-01
-3.74662000 6.78829000e-01
-3.71662000 8.91551000e-01
-3.68662000 1.23483600e+00
-3.65662000 1.63475100e+00
-3.62662000 2.35166600e+00
-3.59662000 3.59392900e+00
-3.56662000 4.03268400e+00
-3.53662000 2.92888500e+00
-3.50662000 1.98183900e+00
-3.47662000 1.52453300e+00
-3.44662000 1.42913000e+00
-3.41662000 1.71282200e+00
-3.38662000 2.33076400e+00
-3.35662000 2.35324600e+00
-3.32662000 1.69223800e+00
-3.29662000 1.27033100e+00
-3.26662000 1.04397200e+00
-3.23662000 9.50900000e-01
-3.20662000 1.01204100e+00
-3.17662000 1.23709000e+00
-3.14662000 1.66551600e+00
-3.11662000 2.50347600e+00
-3.08662000 3.57199400e+00
-3.05662000 3.20090200e+00
-3.02662000 2.08243100e+00
-2.99662000 1.45205900e+00
-2.96662000 1.18878300e+00
-2.93662000 1.04684600e+00
-2.90662000 9.73654000e-01
-2.87662000 9.97838000e-01
-2.84662000 1.10674200e+00
-2.81662000 1.33595200e+00
-2.78662000 1.77860700e+00
-2.75662000 2.58465500e+00
-2.72662000 4.02874500e+00
-2.69662000 5.73371400e+00
-2.66662000 5.63694000e+00
-2.63662000 4.55326000e+00
-2.60662000 4.06064000e+00
-2.57662000 3.52011200e+00
-2.54662000 3.43332000e+00
-2.51662000 3.88303200e+00
-2.48662000 4.36841400e+00
-2.45662000 3.57713500e+00
-2.40699000 2.36996700e+00
-2.37699000 2.29894800e+00
-2.34699000 2.51466600e+00
-2.31699000 2.96290800e+00
-2.28699000 3.88259000e+00
-2.25699000 5.81673000e+00
-2.22699000 8.60553000e+00
-2.19699000 9.70871000e+00
-2.16699000 8.45207000e+00
-2.13699000 6.61358000e+00
-2.10699000 5.92159000e+00
-2.07699000 6.62964400e+00
-2.04699000 8.82921700e+00
-2.01699000 1.20124460e+01
-1.98699000 1.35637810e+01
-1.95699000 1.11307220e+01
-1.92699000 7.16747100e+00
-1.89699000 4.52222300e+00
-1.86699000 3.00351600e+00
-1.83699000 2.15311700e+00
-1.80699000 1.67663900e+00
-1.77699000 1.41669700e+00
-1.74699000 1.28598200e+00
-1.71699000 1.27479600e+00
-1.68699000 1.34256400e+00
-1.65699000 1.24633100e+00
-1.62699000 1.02835200e+00
-1.59699000 9.08337000e-01
-1.56699000 8.76322000e-01
-1.53699000 8.48451000e-01
-1.50699000 8.34978000e-01
-1.47699000 8.62873000e-01
-1.44699000 9.14636000e-01
-1.41699000 1.00488700e+00
-1.38699000 1.16979900e+00
-1.35699000 1.48118700e+00
-1.32699000 2.04224200e+00
-1.29699000 2.98731000e+00
-1.26699000 4.38598200e+00
-1.23699000 5.31876100e+00
-1.20699000 6.28536200e+00
-1.17699000 8.20231600e+00
-1.14699000 8.34582900e+00
-1.11699000 5.80856800e+00
-1.08699000 3.51993300e+00
-1.05699000 2.29876900e+00
-1.02699000 1.64793800e+00
-0.99698700 1.25312600e+00
-0.96698700 1.00532700e+00
-0.93698700 8.64020000e-01
-0.90698700 7.85789000e-01
-0.87698700 7.28506000e-01
-0.84698700 7.12705000e-01
-0.79735800 7.92810000e-01
-0.76735800 7.94815000e-01
-0.73735800 7.13862000e-01
-0.70735800 6.32312000e-01
-0.67735800 5.69688000e-01
-0.64735800 5.40259000e-01
-0.61735800 5.39287000e-01
-0.58735800 5.49976000e-01
-0.55735800 5.49920000e-01
-0.52735800 5.16114000e-01
-0.49735800 5.07275000e-01
-0.46735800 5.29921000e-01
-0.43735800 5.31188000e-01
-0.40735800 5.16717000e-01
-0.37735800 4.96113000e-01
-0.34735800 4.88592000e-01
-0.31735800 5.19383000e-01
-0.28735800 5.66818000e-01
-0.25735800 6.28897000e-01
-0.22735800 7.25392000e-01
-0.19735800 8.56723000e-01
-0.16735800 1.01830500e+00
-0.13735800 1.12554700e+00
-0.10735800 1.27891200e+00
-0.07735840 1.67458900e+00
-0.04735840 2.51253500e+00
-0.01735840 3.90891500e+00
0.01264160 4.78703700e+00
0.04264160 4.15335800e+00
0.07264160 3.41367500e+00
0.10264200 3.28425000e+00
0.13264200 3.18240400e+00
0.16264200 2.67184800e+00
0.19264200 2.02773700e+00
0.22264200 1.69757600e+00
0.25264200 1.54395300e+00
0.28264200 1.49455900e+00
0.31264200 1.52271500e+00
0.34264200 1.62329600e+00
0.37264200 1.75948200e+00
0.40264200 1.83636300e+00
0.43264200 1.66082200e+00
0.46264200 1.43277600e+00
0.49264200 1.26593700e+00
0.52264200 1.11580800e+00
0.55264200 1.02194100e+00
0.58264200 1.05054600e+00
0.61264200 1.08516700e+00
0.64264200 1.02824200e+00
0.67264200 1.03207100e+00
0.70264200 1.06788300e+00
0.73264200 1.13897800e+00
0.76264200 1.28238500e+00
