# E(MeV)  S_NSDRNSDR(K=0) for Cf317_DDPCX
-15.28400000 2.23263000e-01
-15.25400000 2.25224000e-01
-15.22400000 2.27223000e-01
-15.19400000 2.29261000e-01
-15.16400000 2.31340000e-01
-15.13400000 2.33461000e-01
-15.10400000 2.35625000e-01
-15.07400000 2.37835000e-01
-15.04400000 2.40091000e-01
-15.01400000 2.42396000e-01
-14.98400000 2.44751000e-01
-14.95400000 2.47159000e-01
-14.92400000 2.49621000e-01
-14.89400000 2.52140000e-01
-14.86400000 2.54718000e-01
-14.83400000 2.57357000e-01
-14.80400000 2.60060000e-01
-14.77400000 2.62830000e-01
-14.74400000 2.65670000e-01
-14.71400000 2.68583000e-01
-14.68400000 2.71573000e-01
-14.65400000 2.74643000e-01
-14.62400000 2.77796000e-01
-14.59400000 2.81038000e-01
-14.56400000 2.84373000e-01
-14.53400000 2.87806000e-01
-14.50400000 2.91342000e-01
-14.47400000 2.94988000e-01
-14.44400000 2.98749000e-01
-14.41400000 3.02634000e-01
-14.38400000 3.06651000e-01
-14.35400000 3.10808000e-01
-14.32400000 3.15116000e-01
-14.29400000 3.19586000e-01
-14.26400000 3.24233000e-01
-14.23400000 3.29072000e-01
-14.20400000 3.34122000e-01
-14.17400000 3.39404000e-01
-14.14400000 3.44945000e-01
-14.11400000 3.50778000e-01
-14.08400000 3.56943000e-01
-14.05400000 3.63493000e-01
-14.02400000 3.70494000e-01
-13.99400000 3.78036000e-01
-13.96400000 3.86241000e-01
-13.93400000 3.95279000e-01
-13.90400000 4.05398000e-01
-13.87400000 4.16966000e-01
-13.84400000 4.30562000e-01
-13.81400000 4.47129000e-01
-13.78400000 4.68295000e-01
-13.75400000 4.97054000e-01
-13.72400000 5.39323000e-01
-13.67440000 6.78987000e-01
-13.64440000 8.66568000e-01
-13.61440000 1.19832000e+00
-13.58440000 1.41161000e+00
-13.55440000 1.13395000e+00
-13.52440000 8.53748000e-01
-13.49440000 7.13492000e-01
-13.46440000 6.48583000e-01
-13.43440000 6.19128000e-01
-13.40440000 6.07609000e-01
-13.37440000 6.06142000e-01
-13.34440000 6.10930000e-01
-13.31440000 6.20039000e-01
-13.28440000 6.32462000e-01
-13.25440000 6.47701000e-01
-13.22440000 6.65594000e-01
-13.19440000 6.86244000e-01
-13.16440000 7.10078000e-01
-13.13440000 7.38039000e-01
-13.10440000 7.72143000e-01
-13.07440000 8.16796000e-01
-13.04440000 8.80281000e-01
-13.01440000 9.62367000e-01
-12.98440000 1.01656000e+00
-12.95440000 1.02478000e+00
-12.92440000 1.03488000e+00
-12.89440000 1.06389000e+00
-12.86440000 1.11955000e+00
-12.83440000 1.20616000e+00
-12.80440000 1.34214000e+00
-12.77440000 1.56211000e+00
-12.74440000 1.79762000e+00
-12.71440000 1.78198000e+00
-12.68440000 1.70444000e+00
-12.65440000 1.72698000e+00
-12.62440000 1.83119000e+00
-12.59440000 1.98627000e+00
-12.56440000 2.16226000e+00
-12.53440000 2.42300000e+00
-12.50440000 2.80653000e+00
-12.47440000 3.10173000e+00
-12.44440000 3.18870000e+00
-12.41440000 3.35234000e+00
-12.38440000 3.67211000e+00
-12.35440000 4.13887000e+00
-12.32440000 4.77002000e+00
-12.29440000 5.57998000e+00
-12.26440000 6.56394000e+00
-12.23440000 7.87797000e+00
-12.20440000 9.72841000e+00
-12.17440000 1.23971000e+01
-12.14440000 1.63986000e+01
-12.11440000 2.27280000e+01
-12.06480000 4.46094000e+01
-12.03480000 7.45402000e+01
-12.00480000 1.33755000e+02
-11.97480000 2.11526000e+02
-11.94480000 1.91553000e+02
-11.91480000 1.11804000e+02
-11.88480000 6.32182000e+01
-11.85480000 3.90017000e+01
-11.82480000 2.63576000e+01
-11.79480000 1.94061000e+01
-11.76480000 1.57226000e+01
-11.73480000 1.39332000e+01
-11.70480000 1.17364000e+01
-11.67480000 9.26927000e+00
-11.64480000 7.79835000e+00
-11.61480000 7.17043000e+00
-11.58480000 6.51812000e+00
-11.55480000 5.35535000e+00
-11.52480000 4.46787000e+00
-11.49480000 3.91652000e+00
-11.46480000 3.57082000e+00
-11.43480000 3.36817000e+00
-11.40480000 3.29750000e+00
-11.37480000 3.39519000e+00
-11.34480000 3.66437000e+00
-11.31480000 3.86181000e+00
-11.28480000 4.11215000e+00
-11.25480000 4.84205000e+00
-11.22480000 6.24739000e+00
-11.19480000 6.49869000e+00
-11.16480000 5.11458000e+00
-11.13480000 4.07866000e+00
-11.10480000 3.49407000e+00
-11.07480000 3.24677000e+00
-11.04480000 3.20218000e+00
-11.01480000 3.28814000e+00
-10.98480000 3.48885000e+00
-10.95480000 3.81190000e+00
-10.92480000 4.28832000e+00
-10.89480000 4.98319000e+00
-10.86480000 5.99998000e+00
-10.83480000 7.42697000e+00
-10.80480000 9.57156000e+00
-10.77480000 1.32251000e+01
-10.74480000 1.89116000e+01
-10.71480000 2.56770000e+01
-10.68480000 3.77175000e+01
-10.65480000 6.34832000e+01
-10.62480000 9.88124000e+01
-10.59480000 9.60837000e+01
-10.56480000 5.89358000e+01
-10.53480000 3.39705000e+01
-10.50480000 2.15735000e+01
-10.45510000 1.31030000e+01
-10.42510000 1.13798000e+01
-10.39510000 1.14353000e+01
-10.36510000 1.37479000e+01
-10.33510000 1.98283000e+01
-10.30510000 2.81498000e+01
-10.27510000 2.51226000e+01
-10.24510000 1.55840000e+01
-10.21510000 9.76180000e+00
-10.18510000 6.76922000e+00
-10.15510000 5.14203000e+00
-10.12510000 4.19851000e+00
-10.09510000 3.63676000e+00
-10.06510000 3.30921000e+00
-10.03510000 3.02566000e+00
-10.00510000 2.72937000e+00
-9.97513000 2.55010000e+00
-9.94513000 2.47073000e+00
-9.91513000 2.43061000e+00
-9.88513000 2.48772000e+00
-9.85513000 2.73991000e+00
-9.82513000 3.34678000e+00
-9.79513000 4.40220000e+00
-9.76513000 4.86920000e+00
-9.73513000 4.34017000e+00
-9.70513000 3.72531000e+00
-9.67513000 3.08899000e+00
-9.64513000 2.72600000e+00
-9.61513000 2.63345000e+00
-9.58513000 2.73344000e+00
-9.55513000 2.99260000e+00
-9.52513000 3.52312000e+00
-9.49513000 4.58714000e+00
-9.46513000 6.73901000e+00
-9.43513000 1.09617000e+01
-9.40513000 1.58193000e+01
-9.37513000 1.34853000e+01
-9.34513000 8.31436000e+00
-9.31513000 5.35332000e+00
-9.28513000 3.89432000e+00
-9.25513000 3.14972000e+00
-9.22513000 2.76340000e+00
-9.19513000 2.59663000e+00
-9.16513000 2.60752000e+00
-9.13513000 2.82998000e+00
-9.10513000 3.11888000e+00
-9.07513000 3.02497000e+00
-9.04513000 2.96463000e+00
-9.01513000 3.11667000e+00
-8.98513000 3.12600000e+00
-8.95513000 3.03424000e+00
-8.92513000 2.80002000e+00
-8.89513000 2.67379000e+00
-8.84550000 2.82448000e+00
-8.81550000 3.16842000e+00
-8.78550000 3.78102000e+00
-8.75550000 4.40099000e+00
-8.72550000 4.72294000e+00
-8.69550000 5.49801000e+00
-8.66550000 7.36933000e+00
-8.63550000 1.13153000e+01
-8.60550000 1.80149000e+01
-8.57550000 2.03126000e+01
-8.54550000 1.39757000e+01
-8.51550000 8.92388000e+00
-8.48550000 6.43192000e+00
-8.45550000 5.24012000e+00
-8.42550000 4.68476000e+00
-8.39550000 4.48786000e+00
-8.36550000 4.53745000e+00
-8.33550000 4.75750000e+00
-8.30550000 5.04580000e+00
-8.27550000 5.49632000e+00
-8.24550000 6.25253000e+00
-8.21550000 7.39216000e+00
-8.18550000 9.16134000e+00
-8.15550000 1.22281000e+01
-8.12550000 1.78921000e+01
-8.09550000 2.77970000e+01
-8.06550000 3.95793000e+01
-8.03550000 5.30911000e+01
-8.00550000 5.61189000e+01
-7.97550000 3.83764000e+01
-7.94550000 2.47229000e+01
-7.91550000 1.82475000e+01
-7.88550000 1.57340000e+01
-7.85550000 1.58276000e+01
-7.82550000 1.82108000e+01
-7.79550000 2.30406000e+01
-7.76550000 2.98713000e+01
-7.73550000 4.16149000e+01
-7.70550000 6.29389000e+01
-7.67550000 7.95824000e+01
-7.64550000 6.25995000e+01
-7.61550000 3.84770000e+01
-7.58550000 2.54450000e+01
-7.55550000 1.92981000e+01
-7.52550000 1.65479000e+01
-7.49550000 1.56148000e+01
-7.46550000 1.57645000e+01
-7.43550000 1.72529000e+01
-7.40550000 1.90651000e+01
-7.37550000 2.12156000e+01
-7.34550000 2.63808000e+01
-7.31550000 3.65974000e+01
-7.28550000 5.19929000e+01
-7.23587000 6.72716000e+01
-7.20587000 7.56822000e+01
-7.17587000 7.86966000e+01
-7.14587000 6.46010000e+01
-7.11587000 5.69634000e+01
-7.08587000 6.03304000e+01
-7.05587000 7.91046000e+01
-7.02587000 1.23442000e+02
-6.99587000 1.92573000e+02
-6.96587000 1.99390000e+02
-6.93587000 1.44837000e+02
-6.90587000 1.23551000e+02
-6.87587000 1.48166000e+02
-6.84587000 1.98937000e+02
-6.81587000 1.80811000e+02
-6.78587000 1.12752000e+02
-6.75587000 6.94012000e+01
-6.72587000 4.75593000e+01
-6.69587000 3.62177000e+01
-6.66587000 2.98773000e+01
-6.63587000 2.62087000e+01
-6.60587000 2.44244000e+01
-6.57587000 2.41527000e+01
-6.54587000 2.53040000e+01
-6.51587000 2.81643000e+01
-6.48587000 3.35634000e+01
-6.45587000 4.31989000e+01
-6.42587000 5.97844000e+01
-6.39587000 8.19848000e+01
-6.36587000 1.07940000e+02
-6.33587000 1.52579000e+02
-6.30587000 2.33939000e+02
-6.27587000 2.88199000e+02
-6.24587000 2.11374000e+02
-6.21587000 1.26734000e+02
-6.18587000 8.25282000e+01
-6.15587000 6.20421000e+01
-6.12587000 5.38665000e+01
-6.09587000 5.38498000e+01
-6.06587000 6.22102000e+01
-6.03587000 8.34514000e+01
-6.00587000 1.24995000e+02
-5.97587000 1.81227000e+02
-5.94587000 2.26115000e+02
-5.91587000 1.94666000e+02
-5.88587000 1.25363000e+02
-5.85587000 8.59980000e+01
-5.82587000 7.06278000e+01
-5.79587000 6.97674000e+01
-5.76587000 8.00183000e+01
-5.73587000 1.05220000e+02
-5.70587000 1.60329000e+02
-5.67587000 2.44232000e+02
-5.62624000 2.00864000e+02
-5.59624000 1.29510000e+02
-5.56624000 8.84144000e+01
-5.53624000 6.65031000e+01
-5.50624000 5.54008000e+01
-5.47624000 5.20808000e+01
-5.44624000 5.46190000e+01
-5.41624000 6.44715000e+01
-5.38624000 8.71813000e+01
-5.35624000 1.24888000e+02
-5.32624000 1.40462000e+02
-5.29624000 1.30356000e+02
-5.26624000 1.45339000e+02
-5.23624000 1.85428000e+02
-5.20624000 2.55784000e+02
-5.17624000 3.42148000e+02
-5.14624000 3.40893000e+02
-5.11624000 2.68008000e+02
-5.08624000 1.90893000e+02
-5.05624000 1.46217000e+02
-5.02624000 1.31526000e+02
-4.99624000 1.47410000e+02
-4.96624000 2.04158000e+02
-4.93624000 3.18318000e+02
-4.90624000 4.08366000e+02
-4.87624000 3.60494000e+02
-4.84624000 2.69279000e+02
-4.81624000 1.88950000e+02
-4.78624000 1.58710000e+02
-4.75624000 1.60093000e+02
-4.72624000 1.44973000e+02
-4.69624000 1.29549000e+02
-4.66624000 1.31691000e+02
-4.63624000 1.27794000e+02
-4.60624000 1.23553000e+02
-4.57624000 1.36317000e+02
-4.54624000 1.80312000e+02
-4.51624000 2.76086000e+02
-4.48624000 4.11450000e+02
-4.45624000 5.02275000e+02
-4.42624000 5.21288000e+02
-4.39624000 4.06863000e+02
-4.36624000 2.48740000e+02
-4.33624000 1.50734000e+02
-4.30624000 9.91958000e+01
-4.27624000 7.12099000e+01
-4.24624000 5.51274000e+01
-4.21624000 4.57282000e+01
-4.18624000 4.03260000e+01
-4.15624000 3.68265000e+01
-4.12624000 3.49330000e+01
-4.09624000 3.55161000e+01
-4.06624000 3.93733000e+01
-4.01662000 6.15838000e+01
-3.98662000 8.22488000e+01
-3.95662000 1.06329000e+02
-3.92662000 1.08940000e+02
-3.89662000 8.01783000e+01
-3.86662000 6.43294000e+01
-3.83662000 5.86460000e+01
-3.80662000 4.74380000e+01
-3.77662000 3.60705000e+01
-3.74662000 2.91501000e+01
-3.71662000 2.74741000e+01
-3.68662000 3.07108000e+01
-3.65662000 3.74431000e+01
-3.62662000 3.93220000e+01
-3.59662000 3.15303000e+01
-3.56662000 2.54891000e+01
-3.53662000 2.41120000e+01
-3.50662000 2.63886000e+01
-3.47662000 3.32858000e+01
-3.44662000 4.88807000e+01
-3.41662000 7.72859000e+01
-3.38662000 9.89150000e+01
-3.35662000 8.67616000e+01
-3.32662000 5.78983000e+01
-3.29662000 3.93061000e+01
-3.26662000 3.18419000e+01
-3.23662000 3.17567000e+01
-3.20662000 3.74678000e+01
-3.17662000 4.28834000e+01
-3.14662000 4.88522000e+01
-3.11662000 6.21120000e+01
-3.08662000 7.49980000e+01
-3.05662000 9.22419000e+01
-3.02662000 9.28159000e+01
-2.99662000 6.46069000e+01
-2.96662000 4.57569000e+01
-2.93662000 3.65703000e+01
-2.90662000 2.81682000e+01
-2.87662000 2.23741000e+01
-2.84662000 1.86064000e+01
-2.81662000 1.66897000e+01
-2.78662000 1.71208000e+01
-2.75662000 2.02438000e+01
-2.72662000 2.56963000e+01
-2.69662000 2.94675000e+01
-2.66662000 2.77288000e+01
-2.63662000 2.83671000e+01
-2.60662000 3.22964000e+01
-2.57662000 2.94953000e+01
-2.54662000 2.59718000e+01
-2.51662000 2.68824000e+01
-2.48662000 2.77615000e+01
-2.45662000 2.77959000e+01
-2.40699000 2.65556000e+01
-2.37699000 2.97931000e+01
-2.34699000 3.62665000e+01
-2.31699000 3.29657000e+01
-2.28699000 2.70470000e+01
-2.25699000 2.30321000e+01
-2.22699000 1.84828000e+01
-2.19699000 1.36201000e+01
-2.16699000 1.06917000e+01
-2.13699000 9.28091000e+00
-2.10699000 8.97078000e+00
-2.07699000 9.15596000e+00
-2.04699000 9.36507000e+00
-2.01699000 1.01143000e+01
-1.98699000 1.22250000e+01
-1.95699000 1.38707000e+01
-1.92699000 1.48285000e+01
-1.89699000 1.87750000e+01
-1.86699000 2.76623000e+01
-1.83699000 3.75111000e+01
-1.80699000 3.78746000e+01
-1.77699000 2.76085000e+01
-1.74699000 2.00811000e+01
-1.71699000 1.72016000e+01
-1.68699000 1.69164000e+01
-1.65699000 1.72357000e+01
-1.62699000 1.95983000e+01
-1.59699000 2.12307000e+01
-1.56699000 1.74226000e+01
-1.53699000 1.41533000e+01
-1.50699000 1.30893000e+01
-1.47699000 1.40721000e+01
-1.44699000 1.77217000e+01
-1.41699000 2.55960000e+01
-1.38699000 3.86020000e+01
-1.35699000 5.19327000e+01
-1.32699000 5.80736000e+01
-1.29699000 5.24768000e+01
-1.26699000 4.79450000e+01
-1.23699000 4.95419000e+01
-1.20699000 5.22793000e+01
-1.17699000 5.60906000e+01
-1.14699000 4.37891000e+01
-1.11699000 2.85404000e+01
-1.08699000 1.98976000e+01
-1.05699000 1.54847000e+01
-1.02699000 1.40522000e+01
-0.99698700 1.40641000e+01
-0.96698700 1.57525000e+01
-0.93698700 2.00876000e+01
-0.90698700 2.12645000e+01
-0.87698700 1.52526000e+01
-0.84698700 1.02192000e+01
-0.79735800 7.25568000e+00
-0.76735800 7.23525000e+00
-0.73735800 6.67929000e+00
-0.70735800 5.21937000e+00
-0.67735800 4.18533000e+00
-0.64735800 3.70130000e+00
-0.61735800 3.62888000e+00
-0.58735800 3.83584000e+00
-0.55735800 4.24228000e+00
-0.52735800 4.56047000e+00
-0.49735800 4.46876000e+00
-0.46735800 4.26504000e+00
-0.43735800 4.07080000e+00
-0.40735800 3.96192000e+00
-0.37735800 3.80771000e+00
-0.34735800 3.30593000e+00
-0.31735800 2.96221000e+00
-0.28735800 3.05570000e+00
-0.25735800 3.49913000e+00
-0.22735800 4.11991000e+00
-0.19735800 5.22947000e+00
-0.16735800 6.12616000e+00
-0.13735800 5.16356000e+00
-0.10735800 3.92780000e+00
-0.07735840 3.04010000e+00
-0.04735840 2.41563000e+00
-0.01735840 2.02177000e+00
0.01264160 1.80672000e+00
0.04264160 1.70948000e+00
0.07264160 1.68172000e+00
0.10264200 1.71711000e+00
0.13264200 1.81284000e+00
0.16264200 1.85104000e+00
0.19264200 1.91968000e+00
0.22264200 2.14164000e+00
0.25264200 2.36416000e+00
0.28264200 2.60349000e+00
0.31264200 2.97441000e+00
0.34264200 3.21035000e+00
0.37264200 3.73853000e+00
0.40264200 5.16371000e+00
0.43264200 8.21988000e+00
0.46264200 1.25112000e+01
0.49264200 1.20010000e+01
0.52264200 7.69972000e+00
0.55264200 4.92112000e+00
0.58264200 3.62140000e+00
0.61264200 3.11437000e+00
0.64264200 2.98460000e+00
0.67264200 2.91024000e+00
0.70264200 2.98474000e+00
0.73264200 3.02196000e+00
0.76264200 2.92869000e+00
