# E(MeV)  S_GAMTGAMT(K=0) for Db319_DDPCX
-10.52370000 3.34253000e-03
-10.49370000 3.35834000e-03
-10.46370000 3.37698000e-03
-10.43370000 3.40151000e-03
-10.40370000 3.43143000e-03
-10.37370000 3.44327000e-03
-10.34370000 3.43892000e-03
-10.31370000 3.44057000e-03
-10.28370000 3.44793000e-03
-10.25370000 3.45805000e-03
-10.22370000 3.46952000e-03
-10.19370000 3.48172000e-03
-10.16370000 3.49436000e-03
-10.13370000 3.50730000e-03
-10.10370000 3.52047000e-03
-10.07370000 3.53381000e-03
-10.04370000 3.54732000e-03
-10.01370000 3.56097000e-03
-9.98371000 3.57475000e-03
-9.95371000 3.58868000e-03
-9.92371000 3.60274000e-03
-9.89371000 3.61694000e-03
-9.86371000 3.63128000e-03
-9.83371000 3.64577000e-03
-9.80371000 3.66042000e-03
-9.77371000 3.67524000e-03
-9.74371000 3.69023000e-03
-9.71371000 3.70542000e-03
-9.68371000 3.72081000e-03
-9.65371000 3.73643000e-03
-9.62371000 3.75230000e-03
-9.59371000 3.76845000e-03
-9.56371000 3.78491000e-03
-9.53371000 3.80173000e-03
-9.50371000 3.81895000e-03
-9.47371000 3.83666000e-03
-9.44371000 3.85495000e-03
-9.39011000 3.88952000e-03
-9.36011000 3.91033000e-03
-9.33011000 3.93265000e-03
-9.30011000 3.95713000e-03
-9.27011000 3.98485000e-03
-9.24011000 4.01783000e-03
-9.21011000 4.06008000e-03
-9.18011000 4.12027000e-03
-9.15011000 4.21805000e-03
-9.12011000 4.38826000e-03
-9.09011000 4.58267000e-03
-9.06011000 4.53149000e-03
-9.03011000 4.38401000e-03
-9.00011000 4.31577000e-03
-8.97011000 4.30371000e-03
-8.94011000 4.32234000e-03
-8.91011000 4.36208000e-03
-8.88011000 4.42207000e-03
-8.85011000 4.50760000e-03
-8.82011000 4.63163000e-03
-8.79011000 4.82114000e-03
-8.76011000 5.13371000e-03
-8.73011000 5.69957000e-03
-8.70011000 6.80515000e-03
-8.67011000 8.71713000e-03
-8.64011000 9.63592000e-03
-8.61011000 7.91643000e-03
-8.58011000 6.41338000e-03
-8.55011000 5.68050000e-03
-8.52011000 5.36217000e-03
-8.49011000 5.26966000e-03
-8.46011000 5.30689000e-03
-8.43011000 5.32928000e-03
-8.40011000 5.38410000e-03
-8.37011000 5.59795000e-03
-8.34011000 6.06487000e-03
-8.31011000 7.01419000e-03
-8.25651000 1.09496000e-02
-8.22651000 1.11937000e-02
-8.19651000 8.75653000e-03
-8.16651000 7.12470000e-03
-8.13651000 6.44462000e-03
-8.10651000 6.36362000e-03
-8.07651000 6.73802000e-03
-8.04651000 6.85813000e-03
-8.01651000 6.20525000e-03
-7.98651000 5.67588000e-03
-7.95651000 5.40900000e-03
-7.92651000 5.28078000e-03
-7.89651000 5.22269000e-03
-7.86651000 5.20459000e-03
-7.83651000 5.21327000e-03
-7.80651000 5.24344000e-03
-7.77651000 5.29452000e-03
-7.74651000 5.36998000e-03
-7.71651000 5.47879000e-03
-7.68651000 5.63942000e-03
-7.65651000 5.88198000e-03
-7.62651000 6.20667000e-03
-7.59651000 6.62610000e-03
-7.56651000 7.39332000e-03
-7.53651000 8.93541000e-03
-7.50651000 1.19524000e-02
-7.47651000 1.54379000e-02
-7.44651000 1.38470000e-02
-7.41651000 1.02385000e-02
-7.38651000 8.19272000e-03
-7.35651000 7.21363000e-03
-7.32651000 6.74805000e-03
-7.29651000 6.55360000e-03
-7.26651000 6.54100000e-03
-7.23651000 6.70793000e-03
-7.20651000 7.15247000e-03
-7.17651000 8.08056000e-03
-7.12292000 9.04432000e-03
-7.09292000 8.02353000e-03
-7.06292000 7.46787000e-03
-7.03292000 7.40178000e-03
-7.00292000 7.72763000e-03
-6.97292000 8.56870000e-03
-6.94292000 1.01677000e-02
-6.91292000 1.14512000e-02
-6.88292000 1.06047000e-02
-6.85292000 9.86822000e-03
-6.82292000 1.01758000e-02
-6.79292000 1.16072000e-02
-6.76292000 1.46253000e-02
-6.73292000 1.94444000e-02
-6.70292000 2.65806000e-02
-6.67292000 3.26893000e-02
-6.64292000 2.89115000e-02
-6.61292000 2.10958000e-02
-6.58292000 1.67666000e-02
-6.55292000 1.44196000e-02
-6.52292000 1.16851000e-02
-6.49292000 9.80213000e-03
-6.46292000 8.78087000e-03
-6.43292000 8.22917000e-03
-6.40292000 7.94448000e-03
-6.37292000 7.84755000e-03
-6.34292000 7.92005000e-03
-6.31292000 8.20722000e-03
-6.28292000 8.73143000e-03
-6.25292000 8.84289000e-03
-6.22292000 8.50992000e-03
-6.19292000 8.47965000e-03
-6.16292000 8.89085000e-03
-6.13292000 9.91855000e-03
-6.10292000 1.16266000e-02
-6.07292000 1.22041000e-02
-6.04292000 1.13392000e-02
-5.98932000 1.24669000e-02
-5.95932000 1.38235000e-02
-5.92932000 1.27329000e-02
-5.89932000 1.15219000e-02
-5.86932000 1.14167000e-02
-5.83932000 1.21152000e-02
-5.80932000 1.36633000e-02
-5.77932000 1.66945000e-02
-5.74932000 2.03184000e-02
-5.71932000 1.85178000e-02
-5.68932000 1.48950000e-02
-5.65932000 1.31699000e-02
-5.62932000 1.27386000e-02
-5.59932000 1.29005000e-02
-5.56932000 1.36530000e-02
-5.53932000 1.48287000e-02
-5.50932000 1.72251000e-02
-5.47932000 2.19216000e-02
-5.44932000 2.65137000e-02
-5.41932000 2.53764000e-02
-5.38932000 2.42037000e-02
-5.35932000 2.69860000e-02
-5.32932000 3.52357000e-02
-5.29932000 5.31208000e-02
-5.26932000 8.44233000e-02
-5.23932000 1.00028000e-01
-5.20932000 7.58657000e-02
-5.17932000 5.55671000e-02
-5.14932000 5.02915000e-02
-5.11932000 5.50249000e-02
-5.08932000 5.93552000e-02
-5.05932000 4.69857000e-02
-5.02932000 3.37832000e-02
-4.99932000 2.78956000e-02
-4.96932000 2.61655000e-02
-4.93932000 2.31626000e-02
-4.90932000 1.96123000e-02
-4.85572000 1.65526000e-02
-4.82572000 1.70622000e-02
-4.79572000 1.78467000e-02
-4.76572000 1.69832000e-02
-4.73572000 1.51400000e-02
-4.70572000 1.41524000e-02
-4.67572000 1.39737000e-02
-4.64572000 1.43979000e-02
-4.61572000 1.54762000e-02
-4.58572000 1.74926000e-02
-4.55572000 2.10512000e-02
-4.52572000 2.80360000e-02
-4.49572000 4.12980000e-02
-4.46572000 5.42002000e-02
-4.43572000 4.53042000e-02
-4.40572000 3.09700000e-02
-4.37572000 2.32429000e-02
-4.34572000 1.95742000e-02
-4.31572000 1.79668000e-02
-4.28572000 1.76047000e-02
-4.25572000 1.79879000e-02
-4.22572000 1.88248000e-02
-4.19572000 2.04311000e-02
-4.16572000 2.38232000e-02
-4.13572000 3.06676000e-02
-4.10572000 4.24574000e-02
-4.07572000 4.93335000e-02
-4.04572000 4.26400000e-02
-4.01572000 3.85877000e-02
-3.98572000 4.10977000e-02
-3.95572000 5.13766000e-02
-3.92572000 7.55806000e-02
-3.89572000 1.16830000e-01
-3.86572000 1.29259000e-01
-3.83572000 9.28001000e-02
-3.80572000 6.59743000e-02
-3.77572000 5.13990000e-02
-3.72212000 3.62468000e-02
-3.69212000 3.50458000e-02
-3.66212000 3.77800000e-02
-3.63212000 4.47086000e-02
-3.60212000 5.43643000e-02
-3.57212000 6.89366000e-02
-3.54212000 9.62174000e-02
-3.51212000 1.21170000e-01
-3.48212000 1.19437000e-01
-3.45212000 8.85414000e-02
-3.42212000 6.13130000e-02
-3.39212000 4.78770000e-02
-3.36212000 4.26578000e-02
-3.33212000 3.80238000e-02
-3.30212000 3.42919000e-02
-3.27212000 3.12658000e-02
-3.24212000 2.72141000e-02
-3.21212000 2.47719000e-02
-3.18212000 2.41270000e-02
-3.15212000 2.40767000e-02
-3.12212000 2.41237000e-02
-3.09212000 2.52714000e-02
-3.06212000 2.62074000e-02
-3.03212000 2.47131000e-02
-3.00212000 2.31327000e-02
-2.97212000 2.26697000e-02
-2.94212000 2.32658000e-02
-2.91212000 2.46467000e-02
-2.88212000 2.60409000e-02
-2.85212000 2.73366000e-02
-2.82212000 2.89778000e-02
-2.79212000 3.05180000e-02
-2.76212000 3.20858000e-02
-2.73212000 3.45076000e-02
-2.70212000 3.70761000e-02
-2.67212000 3.91426000e-02
-2.64212000 4.06181000e-02
-2.58852000 4.65431000e-02
-2.55852000 5.48869000e-02
-2.52852000 6.88617000e-02
-2.49852000 8.55132000e-02
-2.46852000 1.11669000e-01
-2.43852000 1.42048000e-01
-2.40852000 1.38432000e-01
-2.37852000 1.30463000e-01
-2.34852000 1.49141000e-01
-2.31852000 1.95131000e-01
-2.28852000 2.26861000e-01
-2.25852000 2.03596000e-01
-2.22852000 1.91584000e-01
-2.19852000 2.10923000e-01
-2.16852000 2.69675000e-01
-2.13852000 4.06717000e-01
-2.10852000 6.81432000e-01
-2.07852000 9.58927000e-01
-2.04852000 7.71084000e-01
-2.01852000 4.53635000e-01
-1.98852000 2.77612000e-01
-1.95852000 1.91327000e-01
-1.92852000 1.42547000e-01
-1.89852000 1.12368000e-01
-1.86852000 9.49693000e-02
-1.83852000 8.51210000e-02
-1.80852000 7.97255000e-02
-1.77852000 7.86894000e-02
-1.74852000 7.97108000e-02
-1.71852000 8.08001000e-02
-1.68852000 8.47871000e-02
-1.65852000 9.29659000e-02
-1.62852000 9.81405000e-02
-1.59852000 9.76446000e-02
-1.56852000 1.01408000e-01
-1.53852000 1.11961000e-01
-1.50852000 1.29835000e-01
-1.45493000 1.90073000e-01
-1.42493000 2.54830000e-01
-1.39493000 3.67908000e-01
-1.36493000 5.79051000e-01
-1.33493000 9.87908000e-01
-1.30493000 1.54028000e+00
-1.27493000 1.48147000e+00
-1.24493000 1.06068000e+00
-1.21493000 9.16738000e-01
-1.18493000 9.81929000e-01
-1.15493000 9.42773000e-01
-1.12493000 7.12139000e-01
-1.09493000 5.43694000e-01
-1.06493000 4.25278000e-01
-1.03493000 3.58312000e-01
-1.00493000 2.75968000e-01
-0.97492600 2.09331000e-01
-0.94492600 1.75438000e-01
-0.91492600 1.62049000e-01
-0.88492600 1.56350000e-01
-0.85492600 1.52495000e-01
-0.82492600 1.50869000e-01
-0.79492600 1.55836000e-01
-0.76492600 1.69993000e-01
-0.73492600 1.92739000e-01
-0.70492600 2.25412000e-01
-0.67492600 2.75556000e-01
-0.64492600 3.77917000e-01
-0.61492600 5.64072000e-01
-0.58492600 7.02158000e-01
-0.55492600 6.39132000e-01
-0.52492600 6.33409000e-01
-0.49492600 8.03242000e-01
-0.46492600 1.24806000e+00
-0.43492600 2.01795000e+00
-0.40492600 2.41320000e+00
-0.37492600 1.76266000e+00
-0.32132800 7.05196000e-01
-0.29132800 4.81652000e-01
-0.26132800 3.67320000e-01
-0.23132800 3.07103000e-01
-0.20132800 2.82814000e-01
-0.17132800 2.75570000e-01
-0.14132800 2.64458000e-01
-0.11132800 2.65321000e-01
-0.08132790 3.11387000e-01
-0.05132790 4.09208000e-01
-0.02132790 4.40073000e-01
0.00867212 3.50457000e-01
0.03867210 2.92631000e-01
0.06867210 2.86921000e-01
0.09867210 3.24457000e-01
0.12867200 3.99695000e-01
0.15867200 4.72174000e-01
0.18867200 5.66595000e-01
0.21867200 7.84877000e-01
0.24867200 1.25487000e+00
0.27867200 2.09265000e+00
0.30867200 2.54793000e+00
0.33867200 1.82979000e+00
0.36867200 1.13653000e+00
0.39867200 7.84335000e-01
0.42867200 6.18606000e-01
0.45867200 5.48047000e-01
0.48867200 5.48005000e-01
0.51867200 6.16450000e-01
0.54867200 7.69776000e-01
0.57867200 1.05605000e+00
0.60867200 1.57345000e+00
0.63867200 2.55449000e+00
0.66867200 4.35580000e+00
0.69867200 5.66165000e+00
0.72867200 4.39400000e+00
0.75867200 2.68208000e+00
