# E(MeV)  S_GAMTGAMT(Total=K0+2*K1) for Ds369_DDPCX
-16.78900000 8.91669000e-03
-16.75900000 8.96840000e-03
-16.72900000 9.03415000e-03
-16.69900000 9.10962000e-03
-16.66900000 9.18619000e-03
-16.63900000 9.26017000e-03
-16.60900000 9.33082000e-03
-16.57900000 9.39862000e-03
-16.54900000 9.46480000e-03
-16.51900000 9.53063000e-03
-16.48900000 9.59378000e-03
-16.45900000 9.65625000e-03
-16.42900000 9.72151000e-03
-16.39900000 9.77124000e-03
-16.36900000 9.80935000e-03
-16.33900000 9.85204000e-03
-16.30900000 9.89859000e-03
-16.27900000 9.94686000e-03
-16.24900000 9.99589000e-03
-16.21900000 1.00453400e-02
-16.18900000 1.00950600e-02
-16.15900000 1.01450600e-02
-16.12900000 1.01953300e-02
-16.09900000 1.02459300e-02
-16.06900000 1.02969100e-02
-16.03900000 1.03483400e-02
-16.00900000 1.04002700e-02
-15.97900000 1.04527600e-02
-15.94900000 1.05058700e-02
-15.91900000 1.05596700e-02
-15.88900000 1.06142000e-02
-15.85900000 1.06695600e-02
-15.82900000 1.07258200e-02
-15.79900000 1.07830200e-02
-15.76900000 1.08412800e-02
-15.73900000 1.09006700e-02
-15.70900000 1.09613000e-02
-15.67900000 1.10233200e-02
-15.64900000 1.10868700e-02
-15.61900000 1.11522300e-02
-15.58900000 1.12198800e-02
-15.55900000 1.12905800e-02
-15.52900000 1.13647400e-02
-15.49900000 1.14394700e-02
-15.46900000 1.15173400e-02
-15.43900000 1.16060800e-02
-15.40900000 1.17092400e-02
-15.37900000 1.18020100e-02
-15.34900000 1.18648800e-02
-15.31900000 1.19262800e-02
-15.28900000 1.19992000e-02
-15.25900000 1.20826500e-02
-15.22900000 1.21733900e-02
-15.19900000 1.22700000e-02
-15.16900000 1.23722100e-02
-15.13900000 1.24803100e-02
-15.10900000 1.25952600e-02
-15.07900000 1.27186600e-02
-15.02890000 1.29536600e-02
-14.99890000 1.31258000e-02
-14.96890000 1.33470300e-02
-14.93890000 1.36360600e-02
-14.90890000 1.38517000e-02
-14.87890000 1.38782700e-02
-14.84890000 1.39300100e-02
-14.81890000 1.40509900e-02
-14.78890000 1.42146700e-02
-14.75890000 1.44065700e-02
-14.72890000 1.46213600e-02
-14.69890000 1.48579800e-02
-14.66890000 1.51173500e-02
-14.63890000 1.54016500e-02
-14.60890000 1.57140600e-02
-14.57890000 1.60587900e-02
-14.54890000 1.64411900e-02
-14.51890000 1.68681500e-02
-14.48890000 1.73484800e-02
-14.45890000 1.78937500e-02
-14.42890000 1.85194200e-02
-14.39890000 1.92466900e-02
-14.36890000 2.01054600e-02
-14.33890000 2.11397000e-02
-14.30890000 2.24169700e-02
-14.27890000 2.40468000e-02
-14.24890000 2.62190500e-02
-14.21890000 2.92890000e-02
-14.18890000 3.39818000e-02
-14.15890000 4.18952000e-02
-14.12890000 5.64027000e-02
-14.09890000 7.97643000e-02
-14.06890000 9.19151000e-02
-14.03890000 7.84088000e-02
-14.00890000 6.66016000e-02
-13.97890000 6.19945000e-02
-13.94890000 6.41513000e-02
-13.91890000 7.27772000e-02
-13.88890000 8.88849000e-02
-13.85890000 1.16330700e-01
-13.82890000 1.65205700e-01
-13.79890000 2.57533000e-01
-13.76890000 4.25177000e-01
-13.73890000 6.24726000e-01
-13.70890000 7.07898000e-01
-13.67890000 5.87882000e-01
-13.64890000 4.25521000e-01
-13.61890000 2.98373500e-01
-13.58890000 2.33082200e-01
-13.55890000 2.08479200e-01
-13.52890000 1.95889000e-01
-13.49890000 1.80499900e-01
-13.46890000 1.78901700e-01
-13.43890000 1.79063200e-01
-13.40890000 1.69354300e-01
-13.37890000 1.65465100e-01
-13.34890000 1.65889500e-01
-13.31890000 1.77548700e-01
-13.26880000 1.69809100e-01
-13.23880000 1.52932100e-01
-13.20880000 1.47884300e-01
-13.17880000 1.39470900e-01
-13.14880000 1.43924400e-01
-13.11880000 1.56934300e-01
-13.08880000 1.82597300e-01
-13.05880000 1.77670200e-01
-13.02880000 1.33367200e-01
-12.99880000 1.07886700e-01
-12.96880000 1.10099600e-01
-12.93880000 1.31468200e-01
-12.90880000 1.45796300e-01
-12.87880000 1.33359000e-01
-12.84880000 1.03620200e-01
-12.81880000 8.00339000e-02
-12.78880000 7.15626000e-02
-12.75880000 7.35951000e-02
-12.72880000 8.35041000e-02
-12.69880000 9.30694000e-02
-12.66880000 9.36784000e-02
-12.63880000 1.03090800e-01
-12.60880000 1.22343600e-01
-12.57880000 1.29169300e-01
-12.54880000 1.24552100e-01
-12.51880000 1.37894400e-01
-12.48880000 1.56540100e-01
-12.45880000 1.74715000e-01
-12.42880000 1.68087100e-01
-12.39880000 1.48734800e-01
-12.36880000 1.51827500e-01
-12.33880000 1.86487200e-01
-12.30880000 2.38336000e-01
-12.27880000 2.64674400e-01
-12.24880000 2.52537500e-01
-12.21880000 2.82748500e-01
-12.18880000 3.78228200e-01
-12.15880000 4.47557000e-01
-12.12880000 3.52645600e-01
-12.09880000 2.39968100e-01
-12.06880000 1.89108100e-01
-12.03880000 1.86235700e-01
-12.00880000 2.25721300e-01
-11.97880000 2.98411700e-01
-11.94880000 3.71815000e-01
-11.91880000 4.38329000e-01
-11.88880000 4.52501000e-01
-11.85880000 3.64513200e-01
-11.82880000 2.85248000e-01
-11.79880000 2.91267300e-01
-11.76880000 3.49375400e-01
-11.73880000 3.04098700e-01
-11.70880000 1.99031500e-01
-11.67880000 1.36921800e-01
-11.64880000 1.07696000e-01
-11.61880000 9.48222000e-02
-11.58880000 9.08420000e-02
-11.55880000 9.50725000e-02
-11.50860000 1.31321900e-01
-11.47860000 1.86273800e-01
-11.44860000 2.52285800e-01
-11.41860000 2.58429600e-01
-11.38860000 2.15554300e-01
-11.35860000 1.65497800e-01
-11.32860000 1.22400200e-01
-11.29860000 9.61835000e-02
-11.26860000 9.05215000e-02
-11.23860000 1.00375100e-01
-11.20860000 9.78149000e-02
-11.17860000 7.40338000e-02
-11.14860000 5.64024000e-02
-11.11860000 4.68151000e-02
-11.08860000 4.05749000e-02
-11.05860000 3.70156000e-02
-11.02860000 3.45911000e-02
-10.99860000 3.26392000e-02
-10.96860000 3.15355000e-02
-10.93860000 3.11570000e-02
-10.90860000 3.12427000e-02
-10.87860000 3.18157000e-02
-10.84860000 3.35963000e-02
-10.81860000 3.57560000e-02
-10.78860000 3.73737000e-02
-10.75860000 3.85669000e-02
-10.72860000 3.91423000e-02
-10.69860000 3.66495000e-02
-10.66860000 3.53545000e-02
-10.63860000 3.79322000e-02
-10.60860000 3.85094000e-02
-10.57860000 3.28968000e-02
-10.54860000 2.79980800e-02
-10.51860000 2.55049000e-02
-10.48860000 2.44657600e-02
-10.45860000 2.43559400e-02
-10.42860000 2.47425600e-02
-10.39860000 2.50846200e-02
-10.36860000 2.43928500e-02
-10.33860000 2.34748200e-02
-10.30860000 2.29413400e-02
-10.27860000 2.27774500e-02
-10.24860000 2.31190900e-02
-10.21860000 2.42392700e-02
-10.18860000 2.55847600e-02
-10.15860000 2.47492400e-02
-10.12860000 2.31843400e-02
-10.09860000 2.24398400e-02
-10.06860000 2.21862300e-02
-10.03860000 2.20982400e-02
-10.00860000 2.21739600e-02
-9.97862000 2.24508200e-02
-9.94862000 2.29197700e-02
-9.91862000 2.33443900e-02
-9.88862000 2.36994300e-02
-9.85862000 2.45319100e-02
-9.82862000 2.60773400e-02
-9.79862000 2.81358800e-02
-9.74850000 2.69636400e-02
-9.71850000 2.65988000e-02
-9.68850000 2.63795500e-02
-9.65850000 2.54643500e-02
-9.62850000 2.51507000e-02
-9.59850000 2.57735800e-02
-9.56850000 2.59757400e-02
-9.53850000 2.51226800e-02
-9.50850000 2.48678000e-02
-9.47850000 2.51407000e-02
-9.44850000 2.59083700e-02
-9.41850000 2.70749400e-02
-9.38850000 2.79505100e-02
-9.35850000 2.72217800e-02
-9.32850000 2.69996100e-02
-9.29850000 2.85253300e-02
-9.26850000 3.14353000e-02
-9.23850000 3.44052400e-02
-9.20850000 3.82531600e-02
-9.17850000 3.93831400e-02
-9.14850000 3.46363600e-02
-9.11850000 3.02796400e-02
-9.08850000 2.86968500e-02
-9.05850000 2.77090100e-02
-9.02850000 2.65555200e-02
-8.99850000 2.63328200e-02
-8.96850000 2.70948300e-02
-8.93850000 2.74095200e-02
-8.90850000 2.66116800e-02
-8.87850000 2.66397100e-02
-8.84850000 2.75127100e-02
-8.81850000 2.73370100e-02
-8.78850000 2.65927500e-02
-8.75850000 2.66367600e-02
-8.72850000 2.80717400e-02
-8.69850000 2.93965800e-02
-8.66850000 2.79438000e-02
-8.63850000 2.64847800e-02
-8.60850000 2.62581900e-02
-8.57850000 2.72176700e-02
-8.54850000 2.92686600e-02
-8.51850000 3.08088400e-02
-8.48850000 3.20790200e-02
-8.45850000 3.19516000e-02
-8.42850000 2.90227600e-02
-8.39850000 2.70135600e-02
-8.36850000 2.62899500e-02
-8.33850000 2.64334900e-02
-8.30850000 2.69345500e-02
-8.27850000 2.67072600e-02
-8.24850000 2.60350100e-02
-8.21850000 2.56261800e-02
-8.18850000 2.54587400e-02
-8.15850000 2.54244700e-02
-8.12850000 2.55050500e-02
-8.09850000 2.56069300e-02
-8.06850000 2.57815900e-02
-8.03850000 2.60486000e-02
-7.98837000 2.66800500e-02
-7.95837000 2.71857800e-02
-7.92837000 2.75981300e-02
-7.89837000 2.79397300e-02
-7.86837000 2.83016000e-02
-7.83837000 2.86657500e-02
-7.80837000 2.93277800e-02
-7.77837000 3.01922600e-02
-7.74837000 3.08687000e-02
-7.71837000 3.14978000e-02
-7.68837000 3.28374000e-02
-7.65837000 3.52311000e-02
-7.62837000 3.81579000e-02
-7.59837000 3.95836000e-02
-7.56837000 3.98931000e-02
-7.53837000 4.08812000e-02
-7.50837000 4.31486000e-02
-7.47837000 4.85995000e-02
-7.44837000 5.42858000e-02
-7.41837000 5.37771000e-02
-7.38837000 5.20421000e-02
-7.35837000 5.46207000e-02
-7.32837000 5.67729000e-02
-7.29837000 5.78159000e-02
-7.26837000 5.94329000e-02
-7.23837000 6.05275000e-02
-7.20837000 5.90013000e-02
-7.17837000 5.83269000e-02
-7.14837000 6.40264000e-02
-7.11837000 7.02387000e-02
-7.08837000 6.61021000e-02
-7.05837000 5.65951000e-02
-7.02837000 5.01242000e-02
-6.99837000 4.94949000e-02
-6.96837000 5.02823000e-02
-6.93837000 4.62857000e-02
-6.90837000 4.30719000e-02
-6.87837000 4.24569000e-02
-6.84837000 4.29387000e-02
-6.81837000 4.22631000e-02
-6.78837000 4.22090000e-02
-6.75837000 4.37614000e-02
-6.72837000 4.59564000e-02
-6.69837000 4.60773000e-02
-6.66837000 4.49221000e-02
-6.63837000 4.49741000e-02
-6.60837000 4.47075000e-02
-6.57837000 4.51295000e-02
-6.54837000 4.58278000e-02
-6.51837000 4.44562000e-02
-6.48837000 4.22914000e-02
-6.45837000 4.18315000e-02
-6.42837000 4.22279000e-02
-6.39837000 4.30784000e-02
-6.36837000 4.48235000e-02
-6.33837000 4.64745000e-02
-6.30837000 4.49434000e-02
-6.27837000 4.26150000e-02
-6.22824000 4.08880000e-02
-6.19824000 4.12883000e-02
-6.16824000 4.22559000e-02
-6.13824000 4.39284000e-02
-6.10824000 4.70050000e-02
-6.07824000 4.99915000e-02
-6.04824000 5.28229000e-02
-6.01824000 5.56520000e-02
-5.98824000 5.78811000e-02
-5.95824000 5.71597000e-02
-5.92824000 5.48261000e-02
-5.89824000 5.34451000e-02
-5.86824000 5.23117000e-02
-5.83824000 5.25816000e-02
-5.80824000 5.43039000e-02
-5.77824000 5.65333000e-02
-5.74824000 6.07830000e-02
-5.71824000 6.91222000e-02
-5.68824000 8.24777000e-02
-5.65824000 1.02990500e-01
-5.62824000 1.17739700e-01
-5.59824000 1.18073400e-01
-5.56824000 1.07134300e-01
-5.53824000 9.63736000e-02
-5.50824000 9.28295000e-02
-5.47824000 9.78391000e-02
-5.44824000 1.06666400e-01
-5.41824000 1.04938100e-01
-5.38824000 9.72500000e-02
-5.35824000 9.03536000e-02
-5.32824000 8.98868000e-02
-5.29824000 8.92773000e-02
-5.26824000 8.20355000e-02
-5.23824000 7.54810000e-02
-5.20824000 7.13433000e-02
-5.17824000 7.09705000e-02
-5.14824000 7.35433000e-02
-5.11824000 7.76099000e-02
-5.08824000 8.78215000e-02
-5.05824000 9.94811000e-02
-5.02824000 9.52293000e-02
-4.99824000 8.33567000e-02
-4.96824000 7.71273000e-02
-4.93824000 7.79604000e-02
-4.90824000 8.43949000e-02
-4.87824000 9.13906000e-02
-4.84824000 8.80352000e-02
-4.81824000 7.77119000e-02
-4.78824000 6.82946000e-02
-4.75824000 6.26933000e-02
-4.72824000 6.02059000e-02
-4.69824000 5.91687000e-02
-4.66824000 5.92607000e-02
-4.63824000 5.95795000e-02
-4.60824000 5.91253000e-02
-4.57824000 5.92098000e-02
-4.54824000 6.03332000e-02
-4.51824000 6.19370000e-02
-4.46811000 6.25445000e-02
-4.43811000 6.21650000e-02
-4.40811000 6.19424000e-02
-4.37811000 6.20713000e-02
-4.34811000 6.26901000e-02
-4.31811000 6.36906000e-02
-4.28811000 6.52293000e-02
-4.25811000 6.75771000e-02
-4.22811000 7.11961000e-02
-4.19811000 7.70185000e-02
-4.16811000 8.38082000e-02
-4.13811000 8.68012000e-02
-4.10811000 8.76859000e-02
-4.07811000 8.95564000e-02
-4.04811000 8.95626000e-02
-4.01811000 8.61012000e-02
-3.98811000 8.46735000e-02
-3.95811000 8.58139000e-02
-3.92811000 8.91795000e-02
-3.89811000 9.51433000e-02
-3.86811000 1.04340300e-01
-3.83811000 1.14064500e-01
-3.80811000 1.17395100e-01
-3.77811000 1.20713200e-01
-3.74811000 1.22856700e-01
-3.71811000 1.22773700e-01
-3.68811000 1.23421700e-01
-3.65811000 1.25543600e-01
-3.62811000 1.28291300e-01
-3.59811000 1.32527400e-01
-3.56811000 1.43639100e-01
-3.53811000 1.61163900e-01
-3.50811000 1.78579100e-01
-3.47811000 1.90033800e-01
-3.44811000 2.09861900e-01
-3.41811000 2.46177400e-01
-3.38811000 2.74183000e-01
-3.35811000 2.82340300e-01
-3.32811000 2.97840400e-01
-3.29811000 3.33506000e-01
-3.26811000 3.77009000e-01
-3.23811000 4.19451000e-01
-3.20811000 4.92934000e-01
-3.17811000 5.80647000e-01
-3.14811000 5.96817000e-01
-3.11811000 6.06465000e-01
-3.08811000 6.60685000e-01
-3.05811000 7.16943000e-01
-3.02811000 7.50374000e-01
-2.99811000 7.35216000e-01
-2.96811000 7.10736000e-01
-2.93811000 7.40335000e-01
-2.90811000 7.97683000e-01
-2.87811000 7.79595000e-01
-2.84811000 8.06849000e-01
-2.81811000 9.81182000e-01
-2.78811000 1.30453900e+00
-2.75811000 1.64628800e+00
-2.70799000 1.67300300e+00
-2.67799000 1.40565200e+00
-2.64799000 1.21121700e+00
-2.61799000 1.04471500e+00
-2.58799000 9.30152000e-01
-2.55799000 9.05326000e-01
-2.52799000 9.13819000e-01
-2.49799000 9.09712000e-01
-2.46799000 8.92002000e-01
-2.43799000 9.02519000e-01
-2.40799000 8.92922000e-01
-2.37799000 8.62456000e-01
-2.34799000 8.53517000e-01
-2.31799000 8.43776000e-01
-2.28799000 8.34129000e-01
-2.25799000 8.64346000e-01
-2.22799000 9.28561000e-01
-2.19799000 1.03250100e+00
-2.16799000 1.15864000e+00
-2.13799000 1.29166100e+00
-2.10799000 1.45265000e+00
-2.07799000 1.65099900e+00
-2.04799000 1.85350800e+00
-2.01799000 2.14469300e+00
-1.98799000 2.59962400e+00
-1.95799000 3.26155200e+00
-1.92799000 3.90280000e+00
-1.89799000 4.37571000e+00
-1.86799000 4.74713000e+00
-1.83799000 4.93101000e+00
-1.80799000 5.45495000e+00
-1.77799000 6.92131000e+00
-1.74799000 9.70797000e+00
-1.71799000 1.42785300e+01
-1.68799000 2.24244000e+01
-1.65799000 3.65698000e+01
-1.62799000 4.64784000e+01
-1.59799000 3.51345000e+01
-1.56799000 2.11727200e+01
-1.53799000 1.30252300e+01
-1.50799000 8.37173000e+00
-1.47799000 5.84519000e+00
-1.44799000 4.41541000e+00
-1.41799000 3.51801000e+00
-1.38799000 2.97552400e+00
-1.35799000 2.64650700e+00
-1.32799000 2.34781600e+00
-1.29799000 2.09097000e+00
-1.26799000 1.80774400e+00
-1.23799000 1.46284100e+00
-1.20799000 1.21731400e+00
-1.17799000 1.06794900e+00
-1.14799000 9.43222000e-01
-1.11799000 8.32770000e-01
-1.08799000 7.52041000e-01
-1.05799000 6.97310000e-01
-1.02799000 6.48831000e-01
-0.99798600 5.99348000e-01
-0.94785800 5.19358000e-01
-0.91785800 4.90208000e-01
-0.88785800 4.68380000e-01
-0.85785800 4.33276000e-01
-0.82785800 4.09418000e-01
-0.79785800 3.92627000e-01
-0.76785800 3.75532000e-01
-0.73785800 3.69305000e-01
-0.70785800 3.67070000e-01
-0.67785800 3.61400000e-01
-0.64785800 3.74941000e-01
-0.61785800 4.20704000e-01
-0.58785800 4.76658000e-01
-0.55785800 5.10504000e-01
-0.52785800 4.73215000e-01
-0.49785800 3.86236400e-01
-0.46785800 3.17973800e-01
-0.43785800 2.78953800e-01
-0.40785800 2.56990000e-01
-0.37785800 2.45058200e-01
-0.34785800 2.41628800e-01
-0.31785800 2.49967800e-01
-0.28785800 2.63690000e-01
-0.25785800 2.73632200e-01
-0.22785800 2.89549200e-01
-0.19785800 2.93716200e-01
-0.16785800 2.85683000e-01
-0.13785800 2.90534000e-01
-0.10785800 2.65342800e-01
-0.07785780 2.29349400e-01
-0.04785780 2.09442900e-01
-0.01785780 2.01713500e-01
0.01214220 2.02495500e-01
0.04214220 2.09342900e-01
0.07214220 2.11349000e-01
0.10214200 2.02552500e-01
0.13214200 1.99262200e-01
0.16214200 2.03671900e-01
0.19214200 2.15100700e-01
0.22214200 2.30540600e-01
0.25214200 2.45398900e-01
0.28214200 2.53556800e-01
0.31214200 2.52465600e-01
0.34214200 2.46164500e-01
0.37214200 2.31594500e-01
0.40214200 2.25253600e-01
0.43214200 2.25408500e-01
0.46214200 2.33967700e-01
0.49214200 2.54304200e-01
0.52214200 2.74960200e-01
0.55214200 2.84306000e-01
0.58214200 2.87474000e-01
0.61214200 2.98536700e-01
0.64214200 3.02480500e-01
0.67214200 3.02220000e-01
0.70214200 3.15125000e-01
0.73214200 3.50268000e-01
0.76214200 3.95921000e-01
