# E(MeV)  S_NSDRNSDR(K=0) for Ds369_DDPCX
-16.78900000 2.00129000e-01
-16.75900000 2.00911000e-01
-16.72900000 2.01698000e-01
-16.69900000 2.02492000e-01
-16.66900000 2.03291000e-01
-16.63900000 2.04089000e-01
-16.60900000 2.04886000e-01
-16.57900000 2.05689000e-01
-16.54900000 2.06500000e-01
-16.51900000 2.07315000e-01
-16.48900000 2.08137000e-01
-16.45900000 2.08963000e-01
-16.42900000 2.09795000e-01
-16.39900000 2.10632000e-01
-16.36900000 2.11474000e-01
-16.33900000 2.12321000e-01
-16.30900000 2.13174000e-01
-16.27900000 2.14032000e-01
-16.24900000 2.14896000e-01
-16.21900000 2.15765000e-01
-16.18900000 2.16640000e-01
-16.15900000 2.17521000e-01
-16.12900000 2.18407000e-01
-16.09900000 2.19300000e-01
-16.06900000 2.20198000e-01
-16.03900000 2.21102000e-01
-16.00900000 2.22013000e-01
-15.97900000 2.22930000e-01
-15.94900000 2.23853000e-01
-15.91900000 2.24782000e-01
-15.88900000 2.25718000e-01
-15.85900000 2.26660000e-01
-15.82900000 2.27609000e-01
-15.79900000 2.28565000e-01
-15.76900000 2.29527000e-01
-15.73900000 2.30496000e-01
-15.70900000 2.31473000e-01
-15.67900000 2.32456000e-01
-15.64900000 2.33447000e-01
-15.61900000 2.34445000e-01
-15.58900000 2.35450000e-01
-15.55900000 2.36462000e-01
-15.52900000 2.37483000e-01
-15.49900000 2.38511000e-01
-15.46900000 2.39546000e-01
-15.43900000 2.40590000e-01
-15.40900000 2.41641000e-01
-15.37900000 2.42701000e-01
-15.34900000 2.43768000e-01
-15.31900000 2.44845000e-01
-15.28900000 2.45929000e-01
-15.25900000 2.47022000e-01
-15.22900000 2.48124000e-01
-15.19900000 2.49234000e-01
-15.16900000 2.50354000e-01
-15.13900000 2.51482000e-01
-15.10900000 2.52620000e-01
-15.07900000 2.53767000e-01
-15.02890000 2.55705000e-01
-14.99890000 2.56878000e-01
-14.96890000 2.58060000e-01
-14.93890000 2.59253000e-01
-14.90890000 2.60455000e-01
-14.87890000 2.61668000e-01
-14.84890000 2.62892000e-01
-14.81890000 2.64126000e-01
-14.78890000 2.65371000e-01
-14.75890000 2.66626000e-01
-14.72890000 2.67894000e-01
-14.69890000 2.69172000e-01
-14.66890000 2.70462000e-01
-14.63890000 2.71764000e-01
-14.60890000 2.73078000e-01
-14.57890000 2.74405000e-01
-14.54890000 2.75744000e-01
-14.51890000 2.77096000e-01
-14.48890000 2.78462000e-01
-14.45890000 2.79841000e-01
-14.42890000 2.81234000e-01
-14.39890000 2.82643000e-01
-14.36890000 2.84067000e-01
-14.33890000 2.85508000e-01
-14.30890000 2.86968000e-01
-14.27890000 2.88448000e-01
-14.24890000 2.89953000e-01
-14.21890000 2.91488000e-01
-14.18890000 2.93068000e-01
-14.15890000 2.94720000e-01
-14.12890000 2.96503000e-01
-14.09890000 2.98538000e-01
-14.06890000 3.00816000e-01
-14.03890000 3.02437000e-01
-14.00890000 3.03480000e-01
-13.97890000 3.04856000e-01
-13.94890000 3.06652000e-01
-13.91890000 3.08913000e-01
-13.88890000 3.11378000e-01
-13.85890000 3.13083000e-01
-13.82890000 3.14175000e-01
-13.79890000 3.15264000e-01
-13.76890000 3.16782000e-01
-13.73890000 3.18629000e-01
-13.70890000 3.20482000e-01
-13.67890000 3.22366000e-01
-13.64890000 3.24616000e-01
-13.61890000 3.27540000e-01
-13.58890000 3.31084000e-01
-13.55890000 3.33585000e-01
-13.52890000 3.34891000e-01
-13.49890000 3.36727000e-01
-13.46890000 3.39555000e-01
-13.43890000 3.41632000e-01
-13.40890000 3.43899000e-01
-13.37890000 3.46289000e-01
-13.34890000 3.47067000e-01
-13.31890000 3.47509000e-01
-13.26880000 3.49166000e-01
-13.23880000 3.50857000e-01
-13.20880000 3.52812000e-01
-13.17880000 3.54952000e-01
-13.14880000 3.57300000e-01
-13.11880000 3.59938000e-01
-13.08880000 3.62730000e-01
-13.05880000 3.65018000e-01
-13.02880000 3.67288000e-01
-12.99880000 3.70118000e-01
-12.96880000 3.73575000e-01
-12.93880000 3.77402000e-01
-12.90880000 3.80833000e-01
-12.87880000 3.82364000e-01
-12.84880000 3.83853000e-01
-12.81880000 3.86371000e-01
-12.78880000 3.89844000e-01
-12.75880000 3.94449000e-01
-12.72880000 4.00609000e-01
-12.69880000 4.09967000e-01
-12.66880000 4.21753000e-01
-12.63880000 4.23406000e-01
-12.60880000 4.19730000e-01
-12.57880000 4.21426000e-01
-12.54880000 4.26827000e-01
-12.51880000 4.28186000e-01
-12.48880000 4.26538000e-01
-12.45880000 4.26249000e-01
-12.42880000 4.28009000e-01
-12.39880000 4.32097000e-01
-12.36880000 4.37734000e-01
-12.33880000 4.41592000e-01
-12.30880000 4.42318000e-01
-12.27880000 4.42828000e-01
-12.24880000 4.45067000e-01
-12.21880000 4.48204000e-01
-12.18880000 4.51147000e-01
-12.15880000 4.54508000e-01
-12.12880000 4.58305000e-01
-12.09880000 4.62469000e-01
-12.06880000 4.67807000e-01
-12.03880000 4.75196000e-01
-12.00880000 4.83716000e-01
-11.97880000 4.86670000e-01
-11.94880000 4.86994000e-01
-11.91880000 4.89664000e-01
-11.88880000 4.94601000e-01
-11.85880000 5.02056000e-01
-11.82880000 5.13150000e-01
-11.79880000 5.24803000e-01
-11.76880000 5.26807000e-01
-11.73880000 5.25834000e-01
-11.70880000 5.26213000e-01
-11.67880000 5.29060000e-01
-11.64880000 5.34420000e-01
-11.61880000 5.42418000e-01
-11.58880000 5.52382000e-01
-11.55880000 5.57306000e-01
-11.50860000 5.60350000e-01
-11.47860000 5.65201000e-01
-11.44860000 5.71458000e-01
-11.41860000 5.77829000e-01
-11.38860000 5.84192000e-01
-11.35860000 5.91468000e-01
-11.32860000 5.99942000e-01
-11.29860000 6.10138000e-01
-11.26860000 6.23486000e-01
-11.23860000 6.41441000e-01
-11.20860000 6.54732000e-01
-11.17860000 6.54431000e-01
-11.14860000 6.55523000e-01
-11.11860000 6.61069000e-01
-11.08860000 6.69211000e-01
-11.05860000 6.78938000e-01
-11.02860000 6.89888000e-01
-10.99860000 7.02030000e-01
-10.96860000 7.15572000e-01
-10.93860000 7.30965000e-01
-10.90860000 7.48984000e-01
-10.87860000 7.71671000e-01
-10.84860000 8.02710000e-01
-10.81860000 8.40905000e-01
-10.78860000 8.81130000e-01
-10.75860000 9.39670000e-01
-10.72860000 9.79291000e-01
-10.69860000 9.71367000e-01
-10.66860000 9.87967000e-01
-10.63860000 1.02021000e+00
-10.60860000 1.00660000e+00
-10.57860000 9.89646000e-01
-10.54860000 9.90293000e-01
-10.51860000 1.00356000e+00
-10.48860000 1.02569000e+00
-10.45860000 1.05399000e+00
-10.42860000 1.08742000e+00
-10.39860000 1.12593000e+00
-10.36860000 1.17006000e+00
-10.33860000 1.22079000e+00
-10.30860000 1.27808000e+00
-10.27860000 1.34201000e+00
-10.24860000 1.41677000e+00
-10.21860000 1.50421000e+00
-10.18860000 1.60806000e+00
-10.15860000 1.73535000e+00
-10.12860000 1.89616000e+00
-10.09860000 2.10456000e+00
-10.06860000 2.38740000e+00
-10.03860000 2.79485000e+00
-10.00860000 3.42115000e+00
-9.97862000 4.43866000e+00
-9.94862000 6.12987000e+00
-9.91862000 9.19047000e+00
-9.88862000 1.42185000e+01
-9.85862000 1.60220000e+01
-9.82862000 1.18550000e+01
-9.79862000 9.11374000e+00
-9.74850000 9.05360000e+00
-9.71850000 8.20649000e+00
-9.68850000 7.32258000e+00
-9.65850000 7.25953000e+00
-9.62850000 8.11694000e+00
-9.59850000 1.01279000e+01
-9.56850000 1.24635000e+01
-9.53850000 1.35222000e+01
-9.50850000 1.57916000e+01
-9.47850000 2.14111000e+01
-9.44850000 3.29600000e+01
-9.41850000 5.37380000e+01
-9.38850000 7.74221000e+01
-9.35850000 8.03070000e+01
-9.32850000 6.08793000e+01
-9.29850000 5.24201000e+01
-9.26850000 5.73848000e+01
-9.23850000 6.09444000e+01
-9.20850000 7.01107000e+01
-9.17850000 7.51977000e+01
-9.14850000 5.82497000e+01
-9.11850000 4.38530000e+01
-9.08850000 3.84092000e+01
-9.05850000 2.87566000e+01
-9.02850000 1.91831000e+01
-8.99850000 1.39477000e+01
-8.96850000 1.13907000e+01
-8.93850000 1.04848000e+01
-8.90850000 1.13661000e+01
-8.87850000 1.25085000e+01
-8.84850000 1.05603000e+01
-8.81850000 8.21478000e+00
-8.78850000 6.55254000e+00
-8.75850000 5.63887000e+00
-8.72850000 5.56861000e+00
-8.69850000 6.16813000e+00
-8.66850000 6.19908000e+00
-8.63850000 5.40948000e+00
-8.60850000 4.76208000e+00
-8.57850000 4.33129000e+00
-8.54850000 4.14602000e+00
-8.51850000 3.68586000e+00
-8.48850000 3.28700000e+00
-8.45850000 3.24928000e+00
-8.42850000 3.41741000e+00
-8.39850000 3.18560000e+00
-8.36850000 2.73963000e+00
-8.33850000 2.48438000e+00
-8.30850000 2.38713000e+00
-8.27850000 2.36203000e+00
-8.24850000 2.29023000e+00
-8.21850000 2.21489000e+00
-8.18850000 2.17470000e+00
-8.15850000 2.14612000e+00
-8.12850000 2.11064000e+00
-8.09850000 2.08967000e+00
-8.06850000 2.08759000e+00
-8.03850000 2.10249000e+00
-7.98837000 2.16521000e+00
-7.95837000 2.22849000e+00
-7.92837000 2.30411000e+00
-7.89837000 2.35960000e+00
-7.86837000 2.38539000e+00
-7.83837000 2.43458000e+00
-7.80837000 2.51461000e+00
-7.77837000 2.59612000e+00
-7.74837000 2.68825000e+00
-7.71837000 2.79928000e+00
-7.68837000 2.84092000e+00
-7.65837000 2.89438000e+00
-7.62837000 2.97514000e+00
-7.59837000 3.09447000e+00
-7.56837000 3.23129000e+00
-7.53837000 3.39986000e+00
-7.50837000 3.65009000e+00
-7.47837000 3.93976000e+00
-7.44837000 4.24989000e+00
-7.41837000 4.62300000e+00
-7.38837000 5.04450000e+00
-7.35837000 5.68967000e+00
-7.32837000 6.47294000e+00
-7.29837000 7.51347000e+00
-7.26837000 9.10913000e+00
-7.23837000 1.04392000e+01
-7.20837000 1.08761000e+01
-7.17837000 1.20439000e+01
-7.14837000 1.47409000e+01
-7.11837000 1.99159000e+01
-7.08837000 2.79298000e+01
-7.05837000 3.83104000e+01
-7.02837000 5.71489000e+01
-6.99837000 8.78758000e+01
-6.96837000 8.90555000e+01
-6.93837000 5.77983000e+01
-6.90837000 3.78487000e+01
-6.87837000 3.05605000e+01
-6.84837000 2.85147000e+01
-6.81837000 2.31812000e+01
-6.78837000 1.81218000e+01
-6.75837000 1.57846000e+01
-6.72837000 1.53111000e+01
-6.69837000 1.63724000e+01
-6.66837000 1.97373000e+01
-6.63837000 2.56902000e+01
-6.60837000 2.75829000e+01
-6.57837000 2.39011000e+01
-6.54837000 2.28034000e+01
-6.51837000 2.55072000e+01
-6.48837000 3.22862000e+01
-6.45837000 4.26658000e+01
-6.42837000 5.23765000e+01
-6.39837000 6.90325000e+01
-6.36837000 1.01079000e+02
-6.33837000 1.55246000e+02
-6.30837000 2.21071000e+02
-6.27837000 1.88659000e+02
-6.22824000 8.08979000e+01
-6.19824000 5.48997000e+01
-6.16824000 4.20339000e+01
-6.13824000 3.41577000e+01
-6.10824000 3.00415000e+01
-6.07824000 2.88757000e+01
-6.04824000 3.00131000e+01
-6.01824000 3.34075000e+01
-5.98824000 3.99054000e+01
-5.95824000 5.14629000e+01
-5.92824000 7.21289000e+01
-5.89824000 1.09389000e+02
-5.86824000 1.80184000e+02
-5.83824000 3.11113000e+02
-5.80824000 4.03567000e+02
-5.77824000 2.89463000e+02
-5.74824000 1.64908000e+02
-5.71824000 9.86342000e+01
-5.68824000 6.50607000e+01
-5.65824000 4.69689000e+01
-5.62824000 3.64959000e+01
-5.59824000 2.99996000e+01
-5.56824000 2.61760000e+01
-5.53824000 2.40348000e+01
-5.50824000 2.30796000e+01
-5.47824000 2.32946000e+01
-5.44824000 2.49909000e+01
-5.41824000 2.94615000e+01
-5.38824000 3.79348000e+01
-5.35824000 4.99923000e+01
-5.32824000 4.76385000e+01
-5.29824000 3.55921000e+01
-5.26824000 2.81448000e+01
-5.23824000 2.60497000e+01
-5.20824000 2.78848000e+01
-5.17824000 2.99710000e+01
-5.14824000 3.20188000e+01
-5.11824000 3.68721000e+01
-5.08824000 4.06316000e+01
-5.05824000 4.91033000e+01
-5.02824000 6.16383000e+01
-4.99824000 5.57054000e+01
-4.96824000 4.30786000e+01
-4.93824000 3.76862000e+01
-4.90824000 3.62481000e+01
-4.87824000 3.41398000e+01
-4.84824000 3.13232000e+01
-4.81824000 2.96355000e+01
-4.78824000 3.03456000e+01
-4.75824000 3.29383000e+01
-4.72824000 3.69633000e+01
-4.69824000 4.09859000e+01
-4.66824000 4.57564000e+01
-4.63824000 5.33138000e+01
-4.60824000 6.71505000e+01
-4.57824000 8.55916000e+01
-4.54824000 1.00618000e+02
-4.51824000 1.23068000e+02
-4.46811000 1.86886000e+02
-4.43811000 2.69757000e+02
-4.40811000 4.34623000e+02
-4.37811000 7.19448000e+02
-4.34811000 9.30927000e+02
-4.31811000 7.55405000e+02
-4.28811000 6.04316000e+02
-4.25811000 4.78342000e+02
-4.22811000 3.09007000e+02
-4.19811000 2.04803000e+02
-4.16811000 1.55012000e+02
-4.13811000 1.36864000e+02
-4.10811000 1.43181000e+02
-4.07811000 1.74919000e+02
-4.04811000 2.33516000e+02
-4.01811000 2.99589000e+02
-3.98811000 3.01967000e+02
-3.95811000 2.18185000e+02
-3.92811000 1.55994000e+02
-3.89811000 1.33282000e+02
-3.86811000 1.38941000e+02
-3.83811000 1.67921000e+02
-3.80811000 2.26955000e+02
-3.77811000 2.65492000e+02
-3.74811000 2.41130000e+02
-3.71811000 1.95759000e+02
-3.68811000 1.44482000e+02
-3.65811000 1.19859000e+02
-3.62811000 1.18132000e+02
-3.59811000 1.22269000e+02
-3.56811000 1.29081000e+02
-3.53811000 1.31667000e+02
-3.50811000 1.25527000e+02
-3.47811000 1.32502000e+02
-3.44811000 1.60143000e+02
-3.41811000 2.11298000e+02
-3.38811000 2.61532000e+02
-3.35811000 2.86514000e+02
-3.32811000 3.17153000e+02
-3.29811000 4.15916000e+02
-3.26811000 6.14818000e+02
-3.23811000 9.16650000e+02
-3.20811000 1.16198000e+03
-3.17811000 1.07618000e+03
-3.14811000 6.94698000e+02
-3.11811000 4.21250000e+02
-3.08811000 2.86780000e+02
-3.05811000 2.24265000e+02
-3.02811000 1.83740000e+02
-2.99811000 1.48145000e+02
-2.96811000 1.25909000e+02
-2.93811000 1.12293000e+02
-2.90811000 1.08164000e+02
-2.87811000 1.16659000e+02
-2.84811000 1.43566000e+02
-2.81811000 1.92847000e+02
-2.78811000 2.21736000e+02
-2.75811000 2.18255000e+02
-2.70799000 2.46417000e+02
-2.67799000 2.54827000e+02
-2.64799000 2.55935000e+02
-2.61799000 2.90366000e+02
-2.58799000 3.94859000e+02
-2.55799000 6.25224000e+02
-2.52799000 1.07086000e+03
-2.49799000 1.51163000e+03
-2.46799000 1.31575000e+03
-2.43799000 8.68451000e+02
-2.40799000 5.31831000e+02
-2.37799000 3.51598000e+02
-2.34799000 2.70644000e+02
-2.31799000 2.42756000e+02
-2.28799000 2.57874000e+02
-2.25799000 3.26710000e+02
-2.22799000 3.86746000e+02
-2.19799000 3.28513000e+02
-2.16799000 2.36745000e+02
-2.13799000 1.74193000e+02
-2.10799000 1.43551000e+02
-2.07799000 1.43116000e+02
-2.04799000 1.67342000e+02
-2.01799000 2.11032000e+02
-1.98799000 2.88997000e+02
-1.95799000 3.04852000e+02
-1.92799000 2.11321000e+02
-1.89799000 1.40360000e+02
-1.86799000 1.07491000e+02
-1.83799000 8.56159000e+01
-1.80799000 6.96983000e+01
-1.77799000 6.03555000e+01
-1.74799000 5.28469000e+01
-1.71799000 4.92257000e+01
-1.68799000 4.75310000e+01
-1.65799000 4.65367000e+01
-1.62799000 4.65169000e+01
-1.59799000 4.74187000e+01
-1.56799000 5.11444000e+01
-1.53799000 6.02852000e+01
-1.50799000 6.82571000e+01
-1.47799000 7.71574000e+01
-1.44799000 7.93773000e+01
-1.41799000 7.92836000e+01
-1.38799000 8.10338000e+01
-1.35799000 8.95993000e+01
-1.32799000 1.17641000e+02
-1.29799000 1.76570000e+02
-1.26799000 2.64487000e+02
-1.23799000 3.35831000e+02
-1.20799000 3.94933000e+02
-1.17799000 3.93917000e+02
-1.14799000 3.00108000e+02
-1.11799000 2.07108000e+02
-1.08799000 1.56924000e+02
-1.05799000 1.22871000e+02
-1.02799000 1.09742000e+02
-0.99798600 1.00138000e+02
-0.94785800 6.17998000e+01
-0.91785800 4.54076000e+01
-0.88785800 3.64109000e+01
-0.85785800 3.27817000e+01
-0.82785800 3.20270000e+01
-0.79785800 3.25671000e+01
-0.76785800 3.40682000e+01
-0.73785800 3.10789000e+01
-0.70785800 2.76706000e+01
-0.67785800 2.87414000e+01
-0.64785800 3.46737000e+01
-0.61785800 4.40321000e+01
-0.58785800 4.57905000e+01
-0.55785800 3.80188000e+01
-0.52785800 3.20513000e+01
-0.49785800 2.87242000e+01
-0.46785800 2.73229000e+01
-0.43785800 2.59104000e+01
-0.40785800 2.73494000e+01
-0.37785800 2.95667000e+01
-0.34785800 2.78113000e+01
-0.31785800 2.39123000e+01
-0.28785800 2.14071000e+01
-0.25785800 2.23728000e+01
-0.22785800 2.39357000e+01
-0.19785800 2.56949000e+01
-0.16785800 2.74135000e+01
-0.13785800 2.45771000e+01
-0.10785800 1.98016000e+01
-0.07785780 1.80319000e+01
-0.04785780 1.74815000e+01
-0.01785780 1.73067000e+01
0.01214220 1.91432000e+01
0.04214220 2.00916000e+01
0.07214220 1.81208000e+01
0.10214200 1.62822000e+01
0.13214200 1.74765000e+01
0.16214200 1.96722000e+01
0.19214200 1.87738000e+01
0.22214200 1.75164000e+01
0.25214200 1.71536000e+01
0.28214200 1.46597000e+01
0.31214200 1.27036000e+01
0.34214200 1.32413000e+01
0.37214200 1.45552000e+01
0.40214200 1.36189000e+01
0.43214200 1.13793000e+01
0.46214200 9.51040000e+00
0.49214200 8.81294000e+00
0.52214200 8.82144000e+00
0.55214200 8.68871000e+00
0.58214200 8.62631000e+00
0.61214200 8.54202000e+00
0.64214200 7.79791000e+00
0.67214200 6.73014000e+00
0.70214200 6.12217000e+00
0.73214200 6.19997000e+00
0.76214200 6.09680000e+00
