# E(MeV)  S_NSDRNSDR(K=1) for Es275_DDPCX
-4.95610000 1.87544000e-01
-4.92610000 1.97434000e-01
-4.89610000 2.06563000e-01
-4.86610000 2.15300000e-01
-4.83610000 2.23906000e-01
-4.80610000 2.32589000e-01
-4.77610000 2.41554000e-01
-4.74610000 2.51040000e-01
-4.71610000 2.61029000e-01
-4.68610000 2.70751000e-01
-4.65610000 2.80750000e-01
-4.62610000 2.91774000e-01
-4.59610000 3.03904000e-01
-4.56610000 3.17227000e-01
-4.53610000 3.31911000e-01
-4.50610000 3.48179000e-01
-4.47610000 3.66288000e-01
-4.44610000 3.86505000e-01
-4.41610000 4.09387000e-01
-4.37926000 4.44024000e-01
-4.34926000 4.78459000e-01
-4.31926000 5.18875000e-01
-4.28926000 5.67325000e-01
-4.25926000 6.26712000e-01
-4.22926000 7.01099000e-01
-4.19926000 7.96480000e-01
-4.16926000 9.22077000e-01
-4.13926000 1.09269000e+00
-4.10926000 1.33323000e+00
-4.07926000 1.68794000e+00
-4.04926000 2.24088000e+00
-4.01926000 3.16401000e+00
-3.98926000 4.83730000e+00
-3.95926000 8.12359000e+00
-3.92926000 1.44113000e+01
-3.89926000 2.05752000e+01
-3.86926000 1.61443000e+01
-3.83926000 9.22110000e+00
-3.80242000 4.85285000e+00
-3.77242000 3.20255000e+00
-3.74242000 2.29690000e+00
-3.71242000 1.75908000e+00
-3.68242000 1.41843000e+00
-3.65242000 1.19150000e+00
-3.62242000 1.03431000e+00
-3.59242000 9.22120000e-01
-3.56242000 8.40229000e-01
-3.53242000 7.79492000e-01
-3.50242000 7.33992000e-01
-3.47242000 6.99773000e-01
-3.44242000 6.74118000e-01
-3.41242000 6.55111000e-01
-3.38242000 6.41377000e-01
-3.35242000 6.31910000e-01
-3.32242000 6.25966000e-01
-3.29242000 6.22986000e-01
-3.26242000 6.22551000e-01
-3.22559000 6.25036000e-01
-3.19559000 6.29240000e-01
-3.16559000 6.35218000e-01
-3.13559000 6.42851000e-01
-3.10559000 6.52056000e-01
-3.07559000 6.62784000e-01
-3.04559000 6.75013000e-01
-3.01559000 6.88749000e-01
-2.98559000 7.04021000e-01
-2.95559000 7.20886000e-01
-2.92559000 7.39423000e-01
-2.89559000 7.59743000e-01
-2.86559000 7.81989000e-01
-2.83559000 8.06342000e-01
-2.80559000 8.33029000e-01
-2.77559000 8.62335000e-01
-2.74559000 8.94617000e-01
-2.71559000 9.30328000e-01
-2.68559000 9.70048000e-01
-2.64875000 1.02543000e+00
-2.61875000 1.07714000e+00
-2.58875000 1.13629000e+00
-2.55875000 1.20487000e+00
-2.52875000 1.28566000e+00
-2.49875000 1.38276000e+00
-2.46875000 1.50240000e+00
-2.43875000 1.65442000e+00
-2.40875000 1.85516000e+00
-2.37875000 2.13340000e+00
-2.34875000 2.54326000e+00
-2.31875000 3.19481000e+00
-2.28875000 4.32928000e+00
-2.25875000 6.48228000e+00
-2.22875000 1.04504000e+01
-2.19875000 1.46662000e+01
-2.16875000 1.27919000e+01
-2.13875000 8.37305000e+00
-2.10875000 5.71355000e+00
-2.07191000 4.26745000e+00
-2.04191000 3.79229000e+00
-2.01191000 3.62737000e+00
-1.98191000 3.65451000e+00
-1.95191000 3.82918000e+00
-1.92191000 4.14765000e+00
-1.89191000 4.62757000e+00
-1.86191000 5.26280000e+00
-1.83191000 6.13498000e+00
-1.80191000 7.48174000e+00
-1.77191000 9.67741000e+00
-1.74191000 1.34679000e+01
-1.71191000 1.99210000e+01
-1.68191000 2.82731000e+01
-1.65191000 3.36392000e+01
-1.62191000 4.06935000e+01
-1.59191000 5.63325000e+01
-1.56191000 6.08909000e+01
-1.53191000 4.41318000e+01
-1.49508000 3.27260000e+01
-1.46508000 3.50318000e+01
-1.43508000 4.78617000e+01
-1.40508000 6.55649000e+01
-1.37508000 6.02333000e+01
-1.34508000 4.13880000e+01
-1.31508000 3.17809000e+01
-1.28508000 3.05535000e+01
-1.25508000 3.51871000e+01
-1.22508000 4.62219000e+01
-1.19508000 6.48386000e+01
-1.16508000 7.85947000e+01
-1.13508000 9.49433000e+01
-1.10508000 9.97095000e+01
-1.07508000 9.06438000e+01
-1.04508000 1.04596000e+02
-1.01508000 1.20402000e+02
-0.98507600 8.83113000e+01
-0.95507600 5.36095000e+01
-0.91824000 3.27044000e+01
-0.88824000 2.52251000e+01
-0.85824000 2.20472000e+01
-0.82824000 2.19484000e+01
-0.79824000 2.52685000e+01
-0.76824000 3.29723000e+01
-0.73824000 4.26058000e+01
-0.70824000 5.22236000e+01
-0.67824000 5.07467000e+01
-0.64824000 4.01550000e+01
-0.61824000 3.66395000e+01
-0.58824000 4.25780000e+01
-0.55824000 5.32662000e+01
-0.52824000 6.57499000e+01
-0.49824000 8.59481000e+01
-0.46824000 9.98976000e+01
-0.43824000 8.02205000e+01
-0.40824000 5.30807000e+01
-0.37824000 3.97331000e+01
-0.34140300 3.56911000e+01
-0.31140300 3.91551000e+01
-0.28140300 4.82765000e+01
-0.25140300 6.60150000e+01
-0.22140300 9.13543000e+01
-0.19140300 1.23321000e+02
-0.16140300 1.73319000e+02
-0.13140300 1.86949000e+02
-0.10140300 1.44698000e+02
-0.07140310 1.07735000e+02
-0.04140310 8.46714000e+01
-0.01140310 7.43992000e+01
0.01859690 6.70236000e+01
0.04859690 5.31616000e+01
0.07859690 4.19260000e+01
0.10859700 3.93172000e+01
0.13859700 4.62089000e+01
0.16859700 6.19163000e+01
0.19859700 6.65245000e+01
0.23543300 5.52081000e+01
0.26543300 4.89035000e+01
0.29543300 4.30951000e+01
0.32543300 4.26390000e+01
0.35543300 5.01258000e+01
0.38543300 7.18427000e+01
0.41543300 1.07032000e+02
0.44543300 1.17377000e+02
0.47543300 1.06615000e+02
0.50543300 9.98242000e+01
0.53543300 7.99287000e+01
0.56543300 6.97813000e+01
0.59543300 7.99096000e+01
0.62543300 9.88125000e+01
0.65543300 1.11019000e+02
0.68543300 9.81900000e+01
0.71543300 8.58553000e+01
0.74543300 8.06986000e+01
0.77543300 6.03663000e+01
