# E(MeV)  S_NSDRNSDR(Total=K0+2*K1) for Eu184_DDPCX
-14.58240000 -8.16408560e+01
-14.55240000 -6.01306780e+01
-14.52240000 -3.36610660e+01
-14.49240000 -1.95065700e+01
-14.46240000 -1.23600980e+01
-14.43240000 -8.47788600e+00
-14.40240000 -6.20136800e+00
-14.37240000 -4.78826000e+00
-14.34240000 -3.88409600e+00
-14.31240000 -3.31213000e+00
-14.28240000 -2.98867600e+00
-14.25240000 -2.89250000e+00
-14.22240000 -3.06772000e+00
-14.19240000 -3.66907000e+00
-14.16240000 -5.08869000e+00
-14.13240000 -8.08621200e+00
-14.10240000 -1.20459210e+01
-14.07240000 -1.12646970e+01
-14.04240000 -7.30293500e+00
-14.01240000 -4.43810000e+00
-13.98240000 -2.95952400e+00
-13.95240000 -2.19938300e+00
-13.92240000 -1.69904800e+00
-13.89240000 -1.36471700e+00
-13.86240000 -1.17228100e+00
-13.83240000 -1.07524400e+00
-13.80240000 -1.06580400e+00
-13.77240000 -1.16157800e+00
-13.74240000 -1.41945600e+00
-13.71240000 -1.98467300e+00
-13.68240000 -3.18055300e+00
-13.65240000 -5.26238600e+00
-13.62240000 -6.25839900e+00
-13.59240000 -4.29634600e+00
-13.56240000 -2.44016600e+00
-13.53240000 -1.46391500e+00
-13.50240000 -9.55870000e-01
-13.47240000 -6.67391000e-01
-13.44240000 -4.88762000e-01
-13.41240000 -3.70018000e-01
-13.38240000 -2.86581600e-01
-13.35240000 -2.25438000e-01
-13.32240000 -1.79256600e-01
-13.29240000 -1.43723300e-01
-13.26240000 -1.16254300e-01
-13.23240000 -9.52920000e-02
-13.20240000 -7.94798000e-02
-13.17240000 -6.79180000e-02
-13.14240000 -6.12365000e-02
-13.11240000 -5.99730000e-02
-13.08240000 -6.49614000e-02
-13.04290000 -8.39880000e-02
-13.01290000 -1.12147800e-01
-12.98290000 -1.59027400e-01
-12.95290000 -2.37054900e-01
-12.92290000 -3.71896200e-01
-12.89290000 -6.19871000e-01
-12.86290000 -1.09125600e+00
-12.83290000 -1.77768200e+00
-12.80290000 -1.98757200e+00
-12.77290000 -1.80338200e+00
-12.74290000 -2.12626400e+00
-12.71290000 -3.36896610e+00
-12.68290000 -5.28514840e+00
-12.65290000 -4.92831747e+00
-12.62290000 -2.82455760e+00
-12.59290000 -1.48711680e+00
-12.56290000 -8.08612300e-01
-12.53290000 -4.44315600e-01
-12.50290000 -2.29984700e-01
-12.47290000 -9.30449000e-02
-12.44290000 7.01500000e-04
-12.41290000 6.87048400e-02
-12.38290000 1.20534800e-01
-12.35290000 1.61777000e-01
-12.32290000 1.95872000e-01
-12.29290000 2.25044100e-01
-12.26290000 2.50797400e-01
-12.23290000 2.74195800e-01
-12.20290000 2.96029300e-01
-12.17290000 3.16921700e-01
-12.14290000 3.37390500e-01
-12.11290000 3.57915200e-01
-12.08290000 3.78965000e-01
-12.05290000 4.01044000e-01
-12.02290000 4.24746000e-01
-11.99290000 4.50813000e-01
-11.96290000 4.80234000e-01
-11.93290000 5.14386000e-01
-11.90290000 5.55288000e-01
-11.87290000 6.06027000e-01
-11.84290000 6.71573000e-01
-11.81290000 7.60342000e-01
-11.78290000 8.87518000e-01
-11.75290000 1.08249700e+00
-11.72290000 1.40693400e+00
-11.69290000 1.99941400e+00
-11.66290000 3.15863400e+00
-11.63290000 5.09111800e+00
-11.60290000 5.79455700e+00
-11.57290000 4.15013700e+00
-11.54290000 3.00151800e+00
-11.50340000 2.92754100e+00
-11.47340000 3.32149000e+00
-11.44340000 2.85347900e+00
-11.41340000 1.99253200e+00
-11.38340000 1.47675900e+00
-11.35340000 1.21704200e+00
-11.32340000 1.08385100e+00
-11.29340000 1.01615500e+00
-11.26340000 9.87030000e-01
-11.23340000 9.84807000e-01
-11.20340000 1.00615100e+00
-11.17340000 1.05506800e+00
-11.14340000 1.14695200e+00
-11.11340000 1.31283700e+00
-11.08340000 1.52099800e+00
-11.05340000 1.52749100e+00
-11.02340000 1.44321900e+00
-10.99340000 1.44816300e+00
-10.96340000 1.53145600e+00
-10.93340000 1.67915100e+00
-10.90340000 1.89851400e+00
-10.87340000 2.21647800e+00
-10.84340000 2.68752300e+00
-10.81340000 3.41779800e+00
-10.78340000 4.62466800e+00
-10.75340000 6.78627500e+00
-10.72340000 1.09919190e+01
-10.69340000 1.91334260e+01
-10.66340000 2.81601590e+01
-10.63340000 2.34263700e+01
-10.60340000 1.38691120e+01
-10.57340000 8.49775000e+00
-10.54340000 5.91279100e+00
-10.51340000 4.69530000e+00
-10.48340000 4.26716000e+00
-10.45340000 4.49179000e+00
-10.42340000 5.26616000e+00
-10.39340000 6.28787800e+00
-10.36340000 8.29913000e+00
-10.33340000 9.31568400e+00
-10.30340000 6.79952000e+00
-10.27340000 4.53450400e+00
-10.24340000 3.38260400e+00
-10.21340000 2.82902400e+00
-10.18340000 2.52597000e+00
-10.15340000 2.30598600e+00
-10.12340000 2.17601900e+00
-10.09340000 2.11981100e+00
-10.06340000 2.11304900e+00
-10.03340000 2.14303300e+00
-10.00340000 2.20454600e+00
-9.96397000 2.33269800e+00
-9.93397000 2.47010600e+00
-9.90397000 2.64987500e+00
-9.87397000 2.88438600e+00
-9.84397000 3.19382000e+00
-9.81397000 3.61188800e+00
-9.78397000 4.19748400e+00
-9.75397000 5.05869000e+00
-9.72397000 6.37773000e+00
-9.69397000 8.34323000e+00
-9.66397000 1.15348100e+01
-9.63397000 1.77643500e+01
-9.60397000 2.94788900e+01
-9.57397000 4.07708700e+01
-9.54397000 3.67079900e+01
-9.51397000 2.78437600e+01
-9.48397000 2.11975500e+01
-9.45397000 2.02258000e+01
-9.42397000 2.30483800e+01
-9.39397000 2.41696000e+01
-9.36397000 2.57104600e+01
-9.33397000 2.65734800e+01
-9.30397000 3.11029600e+01
-9.27397000 4.25408400e+01
-9.24397000 4.19298200e+01
-9.21397000 2.69682900e+01
-9.18397000 1.67545100e+01
-9.15397000 1.15944500e+01
-9.12397000 8.90928000e+00
-9.09397000 7.41933000e+00
-9.06397000 6.55945000e+00
-9.03397000 6.06603000e+00
-9.00397000 5.80775000e+00
-8.97397000 5.71645000e+00
-8.94397000 5.75778000e+00
-8.91397000 5.91824000e+00
-8.88397000 6.20075000e+00
-8.85397000 6.62659000e+00
-8.82397000 7.24545000e+00
-8.79397000 8.16224000e+00
-8.76397000 9.57397000e+00
-8.73397000 1.15355400e+01
-8.70397000 1.32841300e+01
-8.67397000 1.54696900e+01
-8.64397000 1.97954200e+01
-8.61397000 2.77494000e+01
-8.58397000 4.14016600e+01
-8.55397000 5.42210600e+01
-8.52397000 5.80420800e+01
-8.49397000 5.91143000e+01
-8.46397000 5.78641000e+01
-8.42451000 4.99327000e+01
-8.39451000 4.46084000e+01
-8.36451000 4.93325000e+01
-8.33451000 6.72788000e+01
-8.30451000 1.02922700e+02
-8.27451000 1.31447000e+02
-8.24451000 1.14877200e+02
-8.21451000 9.18961000e+01
-8.18451000 9.22508000e+01
-8.15451000 1.17113100e+02
-8.12451000 1.56852400e+02
-8.09451000 1.98928900e+02
-8.06451000 2.17498900e+02
-8.03451000 1.85408700e+02
-8.00451000 1.30884700e+02
-7.97451000 1.04600400e+02
-7.94451000 9.28852200e+01
-7.91451000 7.72187500e+01
-7.88451000 6.83865500e+01
-7.85451000 6.98035000e+01
-7.82451000 8.47491000e+01
-7.79451000 1.21683500e+02
-7.76451000 1.84342900e+02
-7.73451000 2.23382200e+02
-7.70451000 1.90643200e+02
-7.67451000 1.50736000e+02
-7.64451000 1.17276300e+02
-7.61451000 1.07374800e+02
-7.58451000 1.27601000e+02
-7.55451000 1.72089300e+02
-7.52451000 1.96144000e+02
-7.49451000 1.56909800e+02
-7.46451000 1.23744800e+02
-7.43451000 1.26455600e+02
-7.40451000 1.45245200e+02
-7.37451000 1.22657100e+02
-7.34451000 9.01217000e+01
-7.31451000 7.78638000e+01
-7.28451000 8.25757000e+01
-7.25451000 1.03590400e+02
-7.22451000 1.48643600e+02
-7.19451000 2.24219800e+02
-7.16451000 2.44936400e+02
-7.13451000 1.93046700e+02
-7.10451000 1.69938100e+02
-7.07451000 1.63202400e+02
-7.04451000 1.87569200e+02
-7.01451000 2.65988600e+02
-6.98451000 3.06983400e+02
-6.95451000 2.29420400e+02
-6.92451000 1.63067200e+02
-6.88504000 1.05147300e+02
-6.85504000 8.17218000e+01
-6.82504000 7.57826000e+01
-6.79504000 8.54634000e+01
-6.76504000 1.14567200e+02
-6.73504000 1.54732900e+02
-6.70504000 1.52321300e+02
-6.67504000 1.09613100e+02
-6.64504000 8.48594000e+01
-6.61504000 8.16037000e+01
-6.58504000 9.68298000e+01
-6.55504000 1.36440600e+02
-6.52504000 2.16347400e+02
-6.49504000 3.31688800e+02
-6.46504000 3.18641800e+02
-6.43504000 2.00725000e+02
-6.40504000 1.29111000e+02
-6.37504000 1.02469500e+02
-6.34504000 1.07241900e+02
-6.31504000 1.35843000e+02
-6.28504000 1.34812300e+02
-6.25504000 9.08082000e+01
-6.22504000 5.98092000e+01
-6.19504000 4.44943000e+01
-6.16504000 3.75932000e+01
-6.13504000 3.57505600e+01
-6.10504000 3.78137000e+01
-6.07504000 4.42862000e+01
-6.04504000 5.92183000e+01
-6.01504000 8.75252000e+01
-5.98504000 1.31786500e+02
-5.95504000 1.72322200e+02
-5.92504000 1.54806200e+02
-5.89504000 1.04240600e+02
-5.86504000 6.93932000e+01
-5.83504000 4.91159000e+01
-5.80504000 3.70862800e+01
-5.77504000 3.05458400e+01
-5.74504000 2.78723600e+01
-5.71504000 2.75246400e+01
-5.68504000 2.91600200e+01
-5.65504000 3.23292800e+01
-5.62504000 3.74974200e+01
-5.59504000 4.30684400e+01
-5.56504000 5.53601400e+01
-5.53504000 6.70283400e+01
-5.50504000 5.66045200e+01
-5.47504000 4.06618400e+01
-5.44504000 3.49762200e+01
-5.41504000 3.79644800e+01
-5.38504000 3.91040800e+01
-5.34558000 3.49681800e+01
-5.31558000 3.81815000e+01
-5.28558000 3.75373000e+01
-5.25558000 2.98770000e+01
-5.22558000 2.54507000e+01
-5.19558000 2.57133000e+01
-5.16558000 2.99642600e+01
-5.13558000 4.08927400e+01
-5.10558000 5.04767800e+01
-5.07558000 4.36382000e+01
-5.04558000 3.57249000e+01
-5.01558000 3.56536600e+01
-4.98558000 4.42510300e+01
-4.95558000 6.13799800e+01
-4.92558000 9.30305900e+01
-4.89558000 1.25691850e+02
-4.86558000 1.06790990e+02
-4.83558000 8.25045300e+01
-4.80558000 7.72806200e+01
-4.77558000 7.08474400e+01
-4.74558000 5.84605400e+01
-4.71558000 4.15173500e+01
-4.68558000 3.00648500e+01
-4.65558000 2.29676100e+01
-4.62558000 1.91703400e+01
-4.59558000 1.69766500e+01
-4.56558000 1.70528200e+01
-4.53558000 1.69856700e+01
-4.50558000 1.42308300e+01
-4.47558000 1.25849500e+01
-4.44558000 1.30132200e+01
-4.41558000 1.41252900e+01
-4.38558000 1.45081900e+01
-4.35558000 1.68995400e+01
-4.32558000 2.04392800e+01
-4.29558000 1.76626200e+01
-4.26558000 1.23807100e+01
-4.23558000 9.63445000e+00
-4.20558000 8.95314000e+00
-4.17558000 1.00322100e+01
-4.14558000 1.33264900e+01
-4.11558000 1.84672800e+01
-4.08558000 2.06674700e+01
-4.05558000 1.49328400e+01
-4.02558000 9.49298000e+00
-3.99558000 6.58107000e+00
-3.96558000 5.09095000e+00
-3.93558000 4.30395100e+00
-3.90558000 3.90758700e+00
-3.87558000 3.79383400e+00
-3.84558000 3.86386700e+00
-3.80612000 4.16752900e+00
-3.77612000 4.76890400e+00
-3.74612000 6.11332100e+00
-3.71612000 8.65112600e+00
-3.68612000 1.08202920e+01
-3.65612000 1.02031240e+01
-3.62612000 9.21515600e+00
-3.59612000 7.64519100e+00
-3.56612000 5.43082800e+00
-3.53612000 4.08246900e+00
-3.50612000 3.46720100e+00
-3.47612000 3.29650000e+00
-3.44612000 3.25658000e+00
-3.41612000 3.55107600e+00
-3.38612000 3.95945700e+00
-3.35612000 3.40601400e+00
-3.32612000 2.70997000e+00
-3.29612000 2.39831300e+00
-3.26612000 2.16225600e+00
-3.23612000 1.92275200e+00
-3.20612000 1.80126400e+00
-3.17612000 1.78454100e+00
-3.14612000 1.85273900e+00
-3.11612000 2.00942200e+00
-3.08612000 2.31710600e+00
-3.05612000 2.71072800e+00
-3.02612000 3.28788700e+00
-2.99612000 4.43194000e+00
-2.96612000 5.27152000e+00
-2.93612000 4.79593000e+00
-2.90612000 4.71174000e+00
-2.87612000 5.71853000e+00
-2.84612000 7.90230000e+00
-2.81612000 8.59225000e+00
-2.78612000 6.41666000e+00
-2.75612000 4.59278000e+00
-2.72612000 3.43668200e+00
-2.69612000 2.83578400e+00
-2.66612000 2.67038600e+00
-2.63612000 2.85944700e+00
-2.60612000 3.54988400e+00
-2.57612000 4.38893000e+00
-2.54612000 4.10814000e+00
-2.51612000 3.53938000e+00
-2.48612000 3.35670000e+00
-2.45612000 2.76788600e+00
-2.42612000 2.09841800e+00
-2.39612000 1.73986900e+00
-2.36612000 1.60553000e+00
-2.33612000 1.61821800e+00
-2.30612000 1.74072300e+00
-2.26666000 1.96401700e+00
-2.23666000 1.81168000e+00
-2.20666000 1.64626500e+00
-2.17666000 1.64842500e+00
-2.14666000 1.83045500e+00
-2.11666000 2.23257600e+00
-2.08666000 2.63856400e+00
-2.05666000 2.76299800e+00
-2.02666000 3.14558800e+00
-1.99666000 3.54220000e+00
-1.96666000 3.84398000e+00
-1.93666000 4.62108700e+00
-1.90666000 5.69188400e+00
-1.87666000 6.27784700e+00
-1.84666000 6.04019300e+00
-1.81666000 6.07131300e+00
-1.78666000 6.26869300e+00
-1.75666000 5.35026900e+00
-1.72666000 4.37222000e+00
-1.69666000 3.83506800e+00
-1.66666000 3.59313800e+00
-1.63666000 4.08357400e+00
-1.60666000 5.33757800e+00
-1.57666000 6.02897300e+00
-1.54666000 4.71490900e+00
-1.51666000 3.49104000e+00
-1.48666000 3.03117900e+00
-1.45666000 3.08013500e+00
-1.42666000 3.27124200e+00
-1.39666000 3.39632200e+00
-1.36666000 3.70788300e+00
-1.33666000 4.56042200e+00
-1.30666000 6.29884700e+00
-1.27666000 9.69696000e+00
-1.24666000 1.59677330e+01
-1.21666000 2.19671340e+01
-1.18666000 1.91526810e+01
-1.15666000 1.19509690e+01
-1.12666000 7.42240200e+00
-1.09666000 5.37487800e+00
-1.06666000 4.41594700e+00
-1.03666000 3.60354800e+00
-1.00666000 3.01989100e+00
-0.97665500 2.59245700e+00
-0.94665500 2.30712100e+00
-0.91665500 2.29826300e+00
-0.88665500 2.67432800e+00
-0.85665500 3.45367800e+00
-0.82665500 3.78606400e+00
-0.79665500 2.85995200e+00
-0.76665500 2.05513000e+00
-0.72719300 1.59470700e+00
-0.69719300 1.35047200e+00
-0.66719300 1.14068900e+00
-0.63719300 1.01191200e+00
-0.60719300 9.37311000e-01
-0.57719300 8.97281000e-01
-0.54719300 8.80377000e-01
-0.51719300 8.77850000e-01
-0.48719300 9.06460000e-01
-0.45719300 9.89161000e-01
-0.42719300 1.09614900e+00
-0.39719300 1.04732700e+00
-0.36719300 9.41176000e-01
-0.33719300 8.95624000e-01
-0.30719300 8.90817000e-01
-0.27719300 9.00642000e-01
-0.24719300 9.26383000e-01
-0.21719300 9.81749000e-01
-0.18719300 1.08242000e+00
-0.15719300 1.21249800e+00
-0.12719300 1.38420400e+00
-0.09719260 1.60553600e+00
-0.06719260 1.94183200e+00
-0.03719260 2.56254300e+00
-0.00719255 3.85769800e+00
0.02280740 5.75172600e+00
0.05280740 5.60156400e+00
0.08280740 3.79157700e+00
0.11280700 2.66789800e+00
0.14280700 2.13303300e+00
0.17280700 1.95109000e+00
0.20280700 2.01395600e+00
0.23280700 2.38706200e+00
0.26280700 3.33240400e+00
0.29280700 4.96553600e+00
0.32280700 5.87772100e+00
0.35280700 5.42704300e+00
0.38280700 4.26176800e+00
0.41280700 2.95085900e+00
0.44280700 2.13451100e+00
0.47280700 1.68352700e+00
0.50280700 1.45804200e+00
0.53280700 1.34771900e+00
0.56280700 1.33578000e+00
0.59280700 1.42050100e+00
0.62280700 1.35393800e+00
0.65280700 1.16625400e+00
0.68280700 1.03579000e+00
0.71280700 9.86307000e-01
0.74280700 9.78771000e-01
0.77280700 1.02234900e+00
