# E(MeV)  S_NSDRNSDR(Total=K0+2*K1) for Fe60_DDPCX
-2.73759000 -1.73344200e-02
-2.70759000 -1.70804500e-02
-2.67759000 -1.68282000e-02
-2.64759000 -1.65776600e-02
-2.61759000 -1.63288100e-02
-2.58759000 -1.60816200e-02
-2.55759000 -1.58360700e-02
-2.52759000 -1.55921000e-02
-2.49759000 -1.53497100e-02
-2.46759000 -1.51089000e-02
-2.43759000 -1.48696100e-02
-2.38260000 -1.44348900e-02
-2.35260000 -1.41998000e-02
-2.32260000 -1.39661300e-02
-2.29260000 -1.37339000e-02
-2.26260000 -1.35030400e-02
-2.23260000 -1.32735800e-02
-2.20260000 -1.30454500e-02
-2.17260000 -1.28186400e-02
-2.14260000 -1.25931400e-02
-2.11260000 -1.23689200e-02
-2.08260000 -1.21459900e-02
-2.02762000 -1.17405700e-02
-1.99762000 -1.15211100e-02
-1.96762000 -1.13028400e-02
-1.93762000 -1.10857100e-02
-1.90762000 -1.08697600e-02
-1.87762000 -1.06549400e-02
-1.84762000 -1.04412400e-02
-1.81762000 -1.02286200e-02
-1.78762000 -1.00171000e-02
-1.75762000 -9.80663000e-03
-1.72762000 -9.59720000e-03
-1.67263000 -9.21600000e-03
-1.64263000 -9.00945000e-03
-1.61263000 -8.80389000e-03
-1.58263000 -8.59926000e-03
-1.55263000 -8.39560000e-03
-1.52263000 -8.19288000e-03
-1.49263000 -7.99107000e-03
-1.46263000 -7.79016000e-03
-1.43263000 -7.59014000e-03
-1.40263000 -7.39098000e-03
-1.37263000 -7.19270000e-03
-1.31765000 -6.83142000e-03
-1.28765000 -6.63548000e-03
-1.25765000 -6.44034000e-03
-1.22765000 -6.24597000e-03
-1.19765000 -6.05240000e-03
-1.16765000 -5.85957000e-03
-1.13765000 -5.66751000e-03
-1.10765000 -5.47615000e-03
-1.07765000 -5.28553000e-03
-1.04765000 -5.09563000e-03
-1.01765000 -4.90640000e-03
-0.96266000 -4.56134000e-03
-0.93266000 -4.37401000e-03
-0.90266000 -4.18733000e-03
-0.87266000 -4.00128000e-03
-0.84266000 -3.81586000e-03
-0.81266000 -3.63103000e-03
-0.78266000 -3.44682000e-03
-0.75266000 -3.26318000e-03
-0.72266000 -3.08009800e-03
-0.69266000 -2.89758800e-03
-0.66266000 -2.71562200e-03
-0.60767400 -2.38349900e-03
-0.57767400 -2.20302700e-03
-0.54767400 -2.02305900e-03
-0.51767400 -1.84358400e-03
-0.48767400 -1.66458800e-03
-0.45767400 -1.48606500e-03
-0.42767400 -1.30800000e-03
-0.39767400 -1.13038000e-03
-0.36767400 -9.53199000e-04
-0.33767400 -7.76444000e-04
-0.30767400 -6.00101600e-04
-0.25268800 -2.77932000e-04
-0.22268800 -1.02707000e-04
-0.19268800 7.21480000e-05
-0.16268800 2.46640000e-04
-0.13268800 4.20780000e-04
-0.10268800 5.94579000e-04
-0.07268780 7.68051000e-04
-0.04268780 9.41201000e-04
-0.01268780 1.11404470e-03
0.01731220 1.28659118e-03
0.04731220 1.45885300e-03
0.10229800 1.77387500e-03
0.13229800 1.94538100e-03
0.16229800 2.11664500e-03
0.19229800 2.28767200e-03
0.22229800 2.45848200e-03
0.25229800 2.62907900e-03
0.28229800 2.79946300e-03
0.31229800 2.96967800e-03
0.34229800 3.13970400e-03
0.37229800 3.30956400e-03
0.40229800 3.47928100e-03
0.45728400 3.78996200e-03
0.48728400 3.95928900e-03
0.51728400 4.12852000e-03
0.54728400 4.29763700e-03
0.57728400 4.46668200e-03
0.60728400 4.63563800e-03
0.63728400 4.80454700e-03
0.66728400 4.97342900e-03
0.69728400 5.14225000e-03
0.72728400 5.31107000e-03
0.75728400 5.47987000e-03
