# E(MeV)  S_NSDRNSDR(Total=K0+2*K1) for Fe62_DDPCX
-4.98974000 -1.82217500e-02
-4.95974000 -1.79422600e-02
-4.92974000 -1.76649500e-02
-4.89974000 -1.73898000e-02
-4.86974000 -1.71167400e-02
-4.83974000 -1.68457800e-02
-4.80974000 -1.65768700e-02
-4.77974000 -1.63099900e-02
-4.74974000 -1.60450700e-02
-4.71974000 -1.57821100e-02
-4.68974000 -1.55210600e-02
-4.65974000 -1.52619000e-02
-4.62974000 -1.50046200e-02
-4.59974000 -1.47491200e-02
-4.56974000 -1.44954400e-02
-4.53974000 -1.42435400e-02
-4.50974000 -1.39933500e-02
-4.47974000 -1.37448900e-02
-4.44974000 -1.34981100e-02
-4.40954000 -1.31700000e-02
-4.37954000 -1.29270400e-02
-4.34954000 -1.26856800e-02
-4.31954000 -1.24458800e-02
-4.28954000 -1.22076400e-02
-4.25954000 -1.19709000e-02
-4.22954000 -1.17356500e-02
-4.19954000 -1.15018700e-02
-4.16954000 -1.12695500e-02
-4.13954000 -1.10386400e-02
-4.10954000 -1.08091300e-02
-4.07954000 -1.05810000e-02
-4.04954000 -1.03542000e-02
-4.01954000 -1.01287500e-02
-3.98954000 -9.90460000e-03
-3.95954000 -9.68176000e-03
-3.92954000 -9.46016000e-03
-3.89954000 -9.23980000e-03
-3.86954000 -9.02069000e-03
-3.82934000 -8.72895000e-03
-3.79934000 -8.51261000e-03
-3.76934000 -8.29744000e-03
-3.73934000 -8.08341000e-03
-3.70934000 -7.87049000e-03
-3.67934000 -7.65867000e-03
-3.64934000 -7.44794000e-03
-3.61934000 -7.23829000e-03
-3.58934000 -7.02966000e-03
-3.55934000 -6.82207000e-03
-3.52934000 -6.61548000e-03
-3.49934000 -6.40991000e-03
-3.46934000 -6.20529000e-03
-3.43934000 -6.00164000e-03
-3.40934000 -5.79893000e-03
-3.37934000 -5.59714000e-03
-3.34934000 -5.39627000e-03
-3.31934000 -5.19630000e-03
-3.28934000 -4.99721000e-03
-3.24914000 -4.73174000e-03
-3.21914000 -4.53463000e-03
-3.18914000 -4.33833800e-03
-3.15914000 -4.14285800e-03
-3.12914000 -3.94816900e-03
-3.09914000 -3.75426700e-03
-3.06914000 -3.56111000e-03
-3.03914000 -3.36871400e-03
-3.00914000 -3.17705500e-03
-2.97914000 -2.98611100e-03
-2.94914000 -2.79585800e-03
-2.91914000 -2.60631300e-03
-2.88914000 -2.41743500e-03
-2.85914000 -2.22922000e-03
-2.82914000 -2.04165000e-03
-2.79914000 -1.85471100e-03
-2.76914000 -1.66839200e-03
-2.73914000 -1.48267700e-03
-2.70914000 -1.29755200e-03
-2.66894000 -1.05037600e-03
-2.63894000 -8.66576600e-04
-2.60894000 -6.83321220e-04
-2.57894000 -5.00594800e-04
-2.54894000 -3.18382000e-04
-2.51894000 -1.36675000e-04
-2.48894000 4.45468000e-05
-2.45894000 2.25295200e-04
-2.42894000 4.05582600e-04
-2.39894000 5.85424000e-04
-2.36894000 7.64834000e-04
-2.33894000 9.43828000e-04
-2.30894000 1.12241600e-03
-2.27894000 1.30061600e-03
-2.24894000 1.47844000e-03
-2.21894000 1.65590500e-03
-2.18894000 1.83302600e-03
-2.15894000 2.00981400e-03
-2.12894000 2.18628700e-03
-2.08874000 2.42230100e-03
-2.05874000 2.59809800e-03
-2.02874000 2.77362800e-03
-1.99874000 2.94891600e-03
-1.96874000 3.12397000e-03
-1.93874000 3.29881000e-03
-1.90874000 3.47345000e-03
-1.87874000 3.64790000e-03
-1.84874000 3.82221000e-03
-1.81874000 3.99636000e-03
-1.78874000 4.17040000e-03
-1.75874000 4.34431000e-03
-1.72874000 4.51816000e-03
-1.69874000 4.69193000e-03
-1.66874000 4.86566000e-03
-1.63874000 5.03938000e-03
-1.60874000 5.21309000e-03
-1.57874000 5.38683000e-03
-1.54874000 5.56063000e-03
-1.50853000 5.79366000e-03
-1.47853000 5.96769000e-03
-1.44853000 6.14185000e-03
-1.41853000 6.31620000e-03
-1.38853000 6.49077000e-03
-1.35853000 6.66558000e-03
-1.32853000 6.84068000e-03
-1.29853000 7.01610000e-03
-1.26853000 7.19188000e-03
-1.23853000 7.36808000e-03
-1.20853000 7.54473000e-03
-1.17853000 7.72191000e-03
-1.14853000 7.89964000e-03
-1.11853000 8.07801000e-03
-1.08853000 8.25708000e-03
-1.05853000 8.43690000e-03
-1.02853000 8.61759000e-03
-0.99853500 8.79919000e-03
-0.96853500 8.98184000e-03
-0.92833300 9.22836000e-03
-0.89833300 9.41383000e-03
-0.86833300 9.60070000e-03
-0.83833300 9.78914000e-03
-0.80833300 9.97929000e-03
-0.77833300 1.01713400e-02
-0.74833300 1.03655000e-02
-0.71833300 1.05620000e-02
-0.68833300 1.07610800e-02
-0.65833300 1.09630600e-02
-0.62833300 1.11682700e-02
-0.59833300 1.13770700e-02
-0.56833300 1.15899200e-02
-0.53833300 1.18073300e-02
-0.50833300 1.20299000e-02
-0.47833300 1.22583400e-02
-0.44833300 1.24934500e-02
-0.41833300 1.27362100e-02
-0.38833300 1.29878100e-02
-0.34813200 1.33412400e-02
-0.31813200 1.36194500e-02
-0.28813200 1.39124500e-02
-0.25813200 1.42229500e-02
-0.22813200 1.45544100e-02
-0.19813200 1.49112000e-02
-0.16813200 1.52988600e-02
-0.13813200 1.57246500e-02
-0.10813200 1.61982200e-02
-0.07813230 1.67325500e-02
-0.04813230 1.73455300e-02
-0.01813230 1.80625800e-02
0.01186770 1.89207900e-02
0.04186770 1.99763700e-02
0.07186770 2.13184200e-02
0.10186800 2.30962000e-02
0.13186800 2.55770900e-02
0.16186800 2.92795100e-02
0.19186800 3.52967500e-02
0.23206900 5.13354100e-02
0.26206900 7.16598200e-02
0.29206900 8.14035400e-02
0.32206900 7.91083800e-02
0.35206900 9.23085800e-02
0.38206900 1.34754020e-01
0.41206900 2.14552420e-01
0.44206900 2.48404570e-01
0.47206900 1.69704340e-01
0.50206900 1.02675290e-01
0.53206900 6.84209200e-02
0.56206900 5.09554900e-02
0.59206900 4.13712800e-02
0.62206900 3.57642800e-02
0.65206900 3.23601200e-02
0.68206900 3.03004500e-02
0.71206900 2.91606600e-02
0.74206900 2.87554000e-02
0.77206900 2.90757300e-02
