# E(MeV)  S_GAMTGAMT(Total=K0+2*K1) for Fe62_DDPCX
-4.98974000 -1.34374230e-01
-4.95974000 -4.37145300e-02
-4.92974000 3.99949600e-02
-4.89974000 1.09990280e-01
-4.86974000 1.63079500e-01
-4.83974000 1.99225100e-01
-4.80974000 2.20457740e-01
-4.77974000 2.29750890e-01
-4.74974000 2.30195450e-01
-4.71974000 2.24525500e-01
-4.68974000 2.14949110e-01
-4.65974000 2.03124400e-01
-4.62974000 1.90236070e-01
-4.59974000 1.77088420e-01
-4.56974000 1.64204570e-01
-4.53974000 1.51903840e-01
-4.50974000 1.40363380e-01
-4.47974000 1.29666330e-01
-4.44974000 1.19833040e-01
-4.40954000 1.07976370e-01
-4.37954000 1.00057160e-01
-4.34954000 9.28707300e-02
-4.31954000 8.63581000e-02
-4.28954000 8.04601000e-02
-4.25954000 7.51196000e-02
-4.22954000 7.02834700e-02
-4.19954000 6.59024200e-02
-4.16954000 6.19317900e-02
-4.13954000 5.83309300e-02
-4.10954000 5.50632600e-02
-4.07954000 5.20966100e-02
-4.04954000 4.94016700e-02
-4.01954000 4.69525700e-02
-3.98954000 4.47267100e-02
-3.95954000 4.27037300e-02
-3.92954000 4.08653800e-02
-3.89954000 3.91962500e-02
-3.86954000 3.76820500e-02
-3.82934000 3.58750000e-02
-3.79934000 3.46786700e-02
-3.76934000 3.36021600e-02
-3.73934000 3.26381500e-02
-3.70934000 3.17797400e-02
-3.67934000 3.10220600e-02
-3.64934000 3.03602900e-02
-3.61934000 2.97911400e-02
-3.58934000 2.93125000e-02
-3.55934000 2.89226600e-02
-3.52934000 2.86211000e-02
-3.49934000 2.84086800e-02
-3.46934000 2.82871100e-02
-3.43934000 2.82595000e-02
-3.40934000 2.83302200e-02
-3.37934000 2.85056400e-02
-3.34934000 2.87937200e-02
-3.31934000 2.92049800e-02
-3.28934000 2.97527600e-02
-3.24914000 3.07309000e-02
-3.21914000 3.16719000e-02
-3.18914000 3.28252400e-02
-3.15914000 3.42280200e-02
-3.12914000 3.59277200e-02
-3.09914000 3.79859800e-02
-3.06914000 4.04832600e-02
-3.03914000 4.35262000e-02
-3.00914000 4.72580200e-02
-2.97914000 5.18748000e-02
-2.94914000 5.76503000e-02
-2.91914000 6.49752600e-02
-2.88914000 7.44225000e-02
-2.85914000 8.68576400e-02
-2.82914000 1.03637100e-01
-2.79914000 1.26975940e-01
-2.76914000 1.60680160e-01
-2.73914000 2.11679840e-01
-2.70914000 2.93518280e-01
-2.66894000 5.06100560e-01
-2.63894000 8.40834880e-01
-2.60894000 1.50159200e+00
-2.57894000 2.37667040e+00
-2.54894000 2.17041380e+00
-2.51894000 1.28316320e+00
-2.48894000 7.45040200e-01
-2.45894000 4.86749400e-01
-2.42894000 3.70521000e-01
-2.39894000 3.43673200e-01
-2.36894000 3.99852000e-01
-2.33894000 4.68049000e-01
-2.30894000 3.65768800e-01
-2.27894000 2.32239300e-01
-2.24894000 1.55881100e-01
-2.21894000 1.14253500e-01
-2.18894000 8.95025000e-02
-2.15894000 7.34616000e-02
-2.12894000 6.23456000e-02
-2.08874000 5.19819000e-02
-2.05874000 4.63777200e-02
-2.02874000 4.19867200e-02
-1.99874000 3.84806200e-02
-1.96874000 3.56428000e-02
-1.93874000 3.33265000e-02
-1.90874000 3.14309200e-02
-1.87874000 2.98884600e-02
-1.84874000 2.86578200e-02
-1.81874000 2.77231400e-02
-1.78874000 2.71003400e-02
-1.75874000 2.68539400e-02
-1.72874000 2.71430000e-02
-1.69874000 2.83332600e-02
-1.66874000 3.12775600e-02
-1.63874000 3.78143000e-02
-1.60874000 4.88485000e-02
-1.57874000 5.11914000e-02
-1.54874000 3.98156000e-02
-1.50853000 2.94689400e-02
-1.47853000 2.61087400e-02
-1.44853000 2.44607600e-02
-1.41853000 2.37475200e-02
-1.38853000 2.36891400e-02
-1.35853000 2.42732000e-02
-1.32853000 2.57355000e-02
-1.29853000 2.87338200e-02
-1.26853000 3.48522200e-02
-1.23853000 4.71149200e-02
-1.20853000 6.28738000e-02
-1.17853000 5.81835800e-02
-1.14853000 4.21257800e-02
-1.11853000 3.26519000e-02
-1.08853000 2.82072600e-02
-1.05853000 2.62908800e-02
-1.02853000 2.58685200e-02
-0.99853500 2.67685000e-02
-0.96853500 2.95554600e-02
-0.92833300 3.86769000e-02
-0.89833300 4.55384000e-02
-0.86833300 4.02303600e-02
-0.83833300 3.24949000e-02
-0.80833300 2.85063400e-02
-0.77833300 2.69516200e-02
-0.74833300 2.67926000e-02
-0.71833300 2.78212400e-02
-0.68833300 3.04965600e-02
-0.65833300 3.51444000e-02
-0.62833300 3.69622000e-02
-0.59833300 3.35704800e-02
-0.56833300 3.14132200e-02
-0.53833300 3.13803400e-02
-0.50833300 3.31077200e-02
-0.47833300 3.70888000e-02
-0.44833300 4.33307000e-02
-0.41833300 4.50382000e-02
-0.38833300 4.13670000e-02
-0.34813200 3.99146400e-02
-0.31813200 4.17515000e-02
-0.28813200 4.59873800e-02
-0.25813200 5.33201400e-02
-0.22813200 6.10446400e-02
-0.19813200 6.50660000e-02
-0.16813200 7.18061000e-02
-0.13813200 8.54988000e-02
-0.10813200 1.07142600e-01
-0.07813230 1.29095000e-01
-0.04813230 1.22434000e-01
-0.01813230 1.10852700e-01
0.01186770 1.13045300e-01
0.04186770 1.27849000e-01
0.07186770 1.56248800e-01
0.10186800 2.05063600e-01
0.13186800 2.91346600e-01
0.16186800 4.54904400e-01
0.19186800 7.77990800e-01
0.23206900 1.37245820e+00
0.26206900 1.16213380e+00
0.29206900 7.61130200e-01
0.32206900 6.04038000e-01
0.35206900 6.68549000e-01
0.38206900 8.46071000e-01
0.41206900 7.33650000e-01
0.44206900 4.58028300e-01
0.47206900 2.92192900e-01
0.50206900 2.08449600e-01
0.53206900 1.65476400e-01
0.56206900 1.44991700e-01
0.59206900 1.41304300e-01
0.62206900 1.57243500e-01
0.65206900 2.00493800e-01
0.68206900 2.39271200e-01
0.71206900 2.15871500e-01
0.74206900 2.04644600e-01
0.77206900 2.04423600e-01
