# E(MeV)  S_NSDRNSDR(Total=K0+2*K1) for Ga87_DDPCX
-15.16830000 -1.32225200e-01
-15.13830000 -1.18792800e-01
-15.10830000 -1.06679420e-01
-15.07830000 -9.56824800e-02
-15.04830000 -8.56356200e-02
-15.01830000 -7.64025000e-02
-14.98830000 -6.78699860e-02
-14.95830000 -5.99432400e-02
-14.92830000 -5.25419000e-02
-14.89830000 -4.55978200e-02
-14.86830000 -3.90524200e-02
-14.83830000 -3.28550200e-02
-14.80830000 -2.69615000e-02
-14.77830000 -2.13334000e-02
-14.74830000 -1.59366000e-02
-14.71830000 -1.07410000e-02
-14.68830000 -5.71950000e-03
-14.65830000 -8.47800000e-04
-14.62830000 3.89640000e-03
-14.59830000 8.53310000e-03
-14.56830000 1.30807000e-02
-14.53830000 1.75569000e-02
-14.50830000 2.19774000e-02
-14.47830000 2.63575000e-02
-14.44830000 3.07121000e-02
-14.41830000 3.50551000e-02
-14.38830000 3.93998000e-02
-14.35830000 4.37597000e-02
-14.32830000 4.81480000e-02
-14.29830000 5.25780300e-02
-14.26830000 5.70627400e-02
-14.23830000 6.16160400e-02
-14.20830000 6.62515400e-02
-14.17830000 7.09836300e-02
-14.14830000 7.58275500e-02
-14.11830000 8.07988740e-02
-14.08830000 8.59145580e-02
-14.05830000 9.11924400e-02
-14.02830000 9.66515300e-02
-13.99830000 1.02312700e-01
-13.96830000 1.08198600e-01
-13.93830000 1.14333820e-01
-13.90830000 1.20745600e-01
-13.87830000 1.27463900e-01
-13.84830000 1.34522000e-01
-13.81830000 1.41957400e-01
-13.78830000 1.49812100e-01
-13.75830000 1.58133500e-01
-13.72830000 1.66975400e-01
-13.69830000 1.76399700e-01
-13.66830000 1.86477400e-01
-13.63830000 1.97290700e-01
-13.60830000 2.08936200e-01
-13.57030000 2.25087500e-01
-13.54030000 2.39074200e-01
-13.51030000 2.54350700e-01
-13.48030000 2.71121700e-01
-13.45030000 2.89642200e-01
-13.42030000 3.10227100e-01
-13.39030000 3.33272900e-01
-13.36030000 3.59295800e-01
-13.33030000 3.88966900e-01
-13.30030000 4.23190000e-01
-13.27030000 4.63207000e-01
-13.24030000 5.10777000e-01
-13.21030000 5.68488000e-01
-13.18030000 6.40291000e-01
-13.15030000 7.32536000e-01
-13.12030000 8.56026000e-01
-13.09030000 1.03044600e+00
-13.06030000 1.29464800e+00
-13.03030000 1.73198600e+00
-13.00030000 2.52957200e+00
-12.97030000 4.01506800e+00
-12.94030000 5.71974600e+00
-12.91030000 5.19549800e+00
-12.88030000 3.94542400e+00
-12.85030000 3.64315000e+00
-12.82030000 4.32228400e+00
-12.79030000 6.20715700e+00
-12.76030000 8.58440400e+00
-12.73030000 8.02681000e+00
-12.70030000 6.69172900e+00
-12.67030000 7.21594000e+00
-12.64030000 8.96306000e+00
-12.61030000 8.35175000e+00
-12.58030000 6.49936900e+00
-12.55030000 5.97340900e+00
-12.52030000 6.86448500e+00
-12.49030000 8.94627000e+00
-12.46030000 1.06589220e+01
-12.43030000 1.12315730e+01
-12.40030000 1.05324760e+01
-12.37030000 1.10329000e+01
-12.34030000 1.38886660e+01
-12.31030000 2.02637070e+01
-12.28030000 3.34430300e+01
-12.25030000 5.85965900e+01
-12.22030000 8.12254100e+01
-12.19030000 6.40394700e+01
-12.16030000 4.06525300e+01
-12.13030000 2.78921900e+01
-12.10030000 2.39331400e+01
-12.07030000 2.43084500e+01
-12.04030000 2.02885200e+01
-12.01030000 1.62190100e+01
-11.97220000 1.76903800e+01
-11.94220000 1.96349200e+01
-11.91220000 1.43920800e+01
-11.88220000 8.89331000e+00
-11.85220000 5.85104000e+00
-11.82220000 4.19321000e+00
-11.79220000 3.20656800e+00
-11.76220000 2.56820400e+00
-11.73220000 2.12746400e+00
-11.70220000 1.80800800e+00
-11.67220000 1.56792200e+00
-11.64220000 1.38258400e+00
-11.61220000 1.23672900e+00
-11.58220000 1.12051100e+00
-11.55220000 1.02742300e+00
-11.52220000 9.53172000e-01
-11.49220000 8.95107000e-01
-11.46220000 8.52010000e-01
-11.43220000 8.24272000e-01
-11.40220000 8.14699000e-01
-11.37220000 8.30090000e-01
-11.34220000 8.83535000e-01
-11.31220000 1.00856300e+00
-11.28220000 1.25607300e+00
-11.25220000 1.48803200e+00
-11.22220000 1.49969700e+00
-11.19220000 1.67927500e+00
-11.16220000 1.93860200e+00
-11.13220000 1.76993300e+00
-11.10220000 1.69623500e+00
-11.07220000 1.96218200e+00
-11.04220000 1.95021500e+00
-11.01220000 1.54848700e+00
-10.98220000 1.32626600e+00
-10.95220000 1.14415500e+00
-10.92220000 9.82662000e-01
-10.89220000 9.12246600e-01
-10.86220000 9.06420400e-01
-10.83220000 9.44345800e-01
-10.80220000 1.01815870e+00
-10.77220000 1.13022480e+00
-10.74220000 1.29302740e+00
-10.71220000 1.52644800e+00
-10.68220000 1.86494250e+00
-10.65220000 2.37056450e+00
-10.62220000 3.16049970e+00
-10.59220000 4.47153850e+00
-10.56220000 6.81987770e+00
-10.53220000 1.13834931e+01
-10.50220000 2.03607706e+01
-10.47220000 3.16244021e+01
-10.44220000 2.79441330e+01
-10.41220000 1.65358990e+01
-10.37410000 8.50569200e+00
-10.34410000 5.38036700e+00
-10.31410000 3.65001660e+00
-10.28410000 2.64196610e+00
-10.25410000 2.01294070e+00
-10.22410000 1.59667370e+00
-10.19410000 1.30809000e+00
-10.16410000 1.10056060e+00
-10.13410000 9.46950900e-01
-10.10410000 8.30657000e-01
-10.07410000 7.41092900e-01
-10.04410000 6.71277200e-01
-10.01410000 6.16487700e-01
-9.98415000 5.73465500e-01
-9.95415000 5.39945600e-01
-9.92415000 5.14361600e-01
-9.89415000 4.95659500e-01
-9.86415000 4.83204300e-01
-9.83415000 4.76716300e-01
-9.80415000 4.76279700e-01
-9.77415000 4.82373000e-01
-9.74415000 4.95999000e-01
-9.71415000 5.18905000e-01
-9.68415000 5.54008000e-01
-9.65415000 6.06203000e-01
-9.62415000 6.83994000e-01
-9.59415000 8.02958000e-01
-9.56415000 9.93707000e-01
-9.53415000 1.32104500e+00
-9.50415000 1.92458400e+00
-9.47415000 2.99898400e+00
-9.44415000 4.18244000e+00
-9.41415000 5.17542200e+00
-9.38415000 6.05718200e+00
-9.35415000 4.72242200e+00
-9.32415000 3.22199800e+00
-9.29415000 2.71753000e+00
-9.26415000 2.85319500e+00
-9.23415000 2.63972000e+00
-9.20415000 2.07621900e+00
-9.17415000 1.83417900e+00
-9.14415000 1.92682800e+00
-9.11415000 2.36347700e+00
-9.08415000 3.34915800e+00
-9.05415000 5.37785000e+00
-9.02415000 8.54073900e+00
-8.99415000 9.24153100e+00
-8.96415000 6.61728200e+00
-8.93415000 5.00449900e+00
-8.90415000 4.46946600e+00
-8.87415000 5.01184500e+00
-8.84415000 7.18338300e+00
-8.81415000 9.54567300e+00
-8.77609000 6.77842400e+00
-8.74609000 4.33678400e+00
-8.71609000 2.94900330e+00
-8.68609000 2.00462290e+00
-8.65609000 1.44722970e+00
-8.62609000 1.12493540e+00
-8.59609000 9.27566100e-01
-8.56609000 8.00791400e-01
-8.53609000 7.17659800e-01
-8.50609000 6.64099700e-01
-8.47609000 6.32670900e-01
-8.44609000 6.19864500e-01
-8.41609000 6.25098500e-01
-8.38609000 6.50802600e-01
-8.35609000 7.03760600e-01
-8.32609000 7.98846800e-01
-8.29609000 9.68436700e-01
-8.26609000 1.28603280e+00
-8.23609000 1.91069700e+00
-8.20609000 2.95857400e+00
-8.17609000 3.38050900e+00
-8.14609000 2.55347800e+00
-8.11609000 2.00856000e+00
-8.08609000 2.01680900e+00
-8.05609000 2.24900400e+00
-8.02609000 2.12565200e+00
-7.99609000 2.07228600e+00
-7.96609000 2.41476000e+00
-7.93609000 2.86170200e+00
-7.90609000 3.14723700e+00
-7.87609000 3.75949900e+00
-7.84609000 4.37816100e+00
-7.81609000 5.25406600e+00
-7.78609000 7.71907800e+00
-7.75609000 1.26938620e+01
-7.72609000 1.64072150e+01
-7.69609000 1.29500270e+01
-7.66609000 9.87777500e+00
-7.63609000 8.72140000e+00
-7.60609000 7.44213300e+00
-7.57609000 7.09525000e+00
-7.54609000 7.52417000e+00
-7.51609000 6.74775000e+00
-7.48609000 4.83672400e+00
-7.45609000 3.80483700e+00
-7.42609000 3.71826000e+00
-7.39609000 4.58948400e+00
-7.36609000 6.86489200e+00
-7.33609000 1.03393910e+01
-7.30609000 1.00906410e+01
-7.27609000 6.69391900e+00
-7.24609000 4.33878100e+00
-7.21609000 2.88833800e+00
-7.17803000 1.88480000e+00
-7.14803000 1.49984000e+00
-7.11803000 1.33530700e+00
-7.08803000 1.36683800e+00
-7.05803000 1.66587800e+00
-7.02803000 2.21866200e+00
-6.99803000 2.18163600e+00
-6.96803000 1.49988600e+00
-6.93803000 1.01863400e+00
-6.90803000 7.66488000e-01
-6.87803000 6.34087000e-01
-6.84803000 5.49922000e-01
-6.81803000 4.83323000e-01
-6.78803000 4.38498000e-01
-6.75803000 4.11055000e-01
-6.72803000 3.96814000e-01
-6.69803000 3.95292000e-01
-6.66803000 4.06192000e-01
-6.63803000 4.17833000e-01
-6.60803000 4.35135000e-01
-6.57803000 4.81251000e-01
-6.54803000 5.73413000e-01
-6.51803000 7.45518000e-01
-6.48803000 1.06386300e+00
-6.45803000 1.49861000e+00
-6.42803000 1.70735600e+00
-6.39803000 1.44102700e+00
-6.36803000 1.11633700e+00
-6.33803000 8.46348000e-01
-6.30803000 7.11896000e-01
-6.27803000 6.31819000e-01
-6.24803000 5.71744000e-01
-6.21803000 5.63415000e-01
-6.18803000 6.06113000e-01
-6.15803000 7.10237200e-01
-6.12803000 9.15430000e-01
-6.09803000 1.28738500e+00
-6.06803000 1.80097700e+00
-6.03803000 2.22926400e+00
-6.00803000 2.42060120e+00
-5.97803000 2.98536000e+00
-5.94803000 3.75199180e+00
-5.91803000 3.05792620e+00
-5.88803000 1.97140460e+00
-5.85803000 1.39835550e+00
-5.82803000 1.16203130e+00
-5.79803000 1.10979220e+00
-5.76803000 1.17720450e+00
-5.73803000 1.37812870e+00
-5.70803000 1.78336160e+00
-5.67803000 2.33239110e+00
-5.64803000 2.90968000e+00
-5.61803000 4.13832700e+00
-5.57997000 7.87909640e+00
-5.54997000 1.13175415e+01
-5.51997000 9.49910890e+00
-5.48997000 6.38362610e+00
-5.45997000 5.41409700e+00
-5.42997000 6.31506500e+00
-5.39997000 7.00066200e+00
-5.36997000 5.17333700e+00
-5.33997000 3.31947200e+00
-5.30997000 2.13803200e+00
-5.27997000 1.48238800e+00
-5.24997000 1.11974000e+00
-5.21997000 9.10899800e-01
-5.18997000 7.93292400e-01
-5.15997000 7.42946300e-01
-5.12997000 7.61028700e-01
-5.09997000 8.79110500e-01
-5.06997000 1.18397380e+00
-5.03997000 1.78919670e+00
-5.00997000 2.20931800e+00
-4.97997000 1.65400420e+00
-4.94997000 1.06701400e+00
-4.91997000 7.41348000e-01
-4.88997000 5.44658300e-01
-4.85997000 4.24086400e-01
-4.82997000 3.50647300e-01
-4.79997000 3.02864100e-01
-4.76997000 2.69682300e-01
-4.73997000 2.45508300e-01
-4.70997000 2.27300200e-01
-4.67997000 2.13398300e-01
-4.64997000 2.03000300e-01
-4.61997000 1.95545100e-01
-4.58997000 1.88856600e-01
-4.55997000 1.82539100e-01
-4.52997000 1.76916800e-01
-4.49997000 1.70844100e-01
-4.46997000 1.66032000e-01
-4.43997000 1.62940100e-01
-4.40997000 1.60951500e-01
-4.37997000 1.60200100e-01
-4.34997000 1.61236000e-01
-4.31997000 1.64802200e-01
-4.28997000 1.72580700e-01
-4.25997000 1.88169500e-01
-4.22997000 2.15550900e-01
-4.19997000 2.46473100e-01
-4.16997000 2.82819600e-01
-4.13997000 3.32774100e-01
-4.10997000 3.23639300e-01
-4.07997000 2.85357700e-01
-4.04997000 2.54421200e-01
-4.01997000 2.32676200e-01
-3.98191000 2.35273100e-01
-3.95191000 2.63464100e-01
-3.92191000 3.26023400e-01
-3.89191000 4.55206500e-01
-3.86191000 6.99030200e-01
-3.83191000 8.97460900e-01
-3.80191000 7.13421500e-01
-3.77191000 4.99339500e-01
-3.74191000 4.13230800e-01
-3.71191000 4.06401000e-01
-3.68191000 4.36736700e-01
-3.65191000 4.97719300e-01
-3.62191000 6.59383400e-01
-3.59191000 9.05651900e-01
-3.56191000 8.90169100e-01
-3.53191000 6.57539500e-01
-3.50191000 4.47970200e-01
-3.47191000 3.24106500e-01
-3.44191000 2.62468700e-01
-3.41191000 2.34369200e-01
-3.38191000 2.28002400e-01
-3.35191000 2.43255700e-01
-3.32191000 2.92088200e-01
-3.29191000 3.99412500e-01
-3.26191000 5.24227300e-01
-3.23191000 4.62294700e-01
-3.20191000 3.24333700e-01
-3.17191000 2.46942200e-01
-3.14191000 2.14399800e-01
-3.11191000 2.02979700e-01
-3.08191000 1.94818400e-01
-3.05191000 1.95829800e-01
-3.02191000 2.09109000e-01
-2.99191000 2.11430400e-01
-2.96191000 1.88591700e-01
-2.93191000 1.65370200e-01
-2.90191000 1.54203200e-01
-2.87191000 1.51138100e-01
-2.84191000 1.53777200e-01
-2.81191000 1.62104000e-01
-2.78191000 1.78775100e-01
-2.75191000 2.11542000e-01
-2.72191000 2.74483500e-01
-2.69191000 3.72018300e-01
-2.66191000 4.26509500e-01
-2.63191000 4.38944000e-01
-2.60191000 4.51416700e-01
-2.57191000 3.58828300e-01
-2.54191000 2.63129200e-01
-2.51191000 2.16847000e-01
-2.48191000 2.03905700e-01
-2.45191000 2.09735500e-01
-2.42191000 2.05228800e-01
-2.38385000 1.92272600e-01
-2.35385000 1.93562800e-01
-2.32385000 2.15302400e-01
-2.29385000 2.64832800e-01
-2.26385000 3.04497400e-01
-2.23385000 2.70494800e-01
-2.20385000 2.43154400e-01
-2.17385000 2.49670000e-01
-2.14385000 2.59256000e-01
-2.11385000 2.86591200e-01
-2.08385000 3.28330800e-01
-2.05385000 3.33213400e-01
-2.02385000 3.26023000e-01
-1.99385000 3.15881100e-01
-1.96385000 2.66430600e-01
-1.93385000 2.16983700e-01
-1.90385000 1.85763500e-01
-1.87385000 1.63708400e-01
-1.84385000 1.50801600e-01
-1.81385000 1.45330600e-01
-1.78385000 1.44944800e-01
-1.75385000 1.44546900e-01
-1.72385000 1.42351400e-01
-1.69385000 1.42672500e-01
-1.66385000 1.44370900e-01
-1.63385000 1.42506200e-01
-1.60385000 1.41549900e-01
-1.57385000 1.44497100e-01
-1.54385000 1.52127800e-01
-1.51385000 1.66302800e-01
-1.48385000 1.89831900e-01
-1.45385000 2.27138000e-01
-1.42385000 2.44536600e-01
-1.39385000 2.28218000e-01
-1.36385000 2.29332300e-01
-1.33385000 2.63400400e-01
-1.30385000 3.47999900e-01
-1.27385000 4.77379300e-01
-1.24385000 4.78847900e-01
-1.21385000 3.78162700e-01
-1.18385000 3.43969900e-01
-1.15385000 3.42609200e-01
-1.12385000 2.89741800e-01
-1.09385000 2.31716900e-01
-1.06385000 2.01408900e-01
-1.03385000 1.89525600e-01
-1.00385000 1.90616600e-01
-0.97385000 2.01063500e-01
-0.94385000 2.09388700e-01
-0.91385000 2.19242000e-01
-0.88385000 2.33845500e-01
-0.85385000 2.40662300e-01
-0.82385000 2.11840600e-01
-0.78579000 1.83918000e-01
-0.75579000 1.73336000e-01
-0.72579000 1.68302400e-01
-0.69579000 1.69239900e-01
-0.66579000 1.72330400e-01
-0.63579000 1.75435100e-01
-0.60579000 1.84055100e-01
-0.57579000 2.02429900e-01
-0.54579000 2.34428900e-01
-0.51579000 2.69217200e-01
-0.48579000 2.92352300e-01
-0.45579000 3.30263100e-01
-0.42579000 4.01397600e-01
-0.39579000 5.53458700e-01
-0.36579000 7.45540700e-01
-0.33579000 6.79599600e-01
-0.30579000 5.03486900e-01
-0.27579000 4.38562100e-01
-0.24579000 4.27292500e-01
-0.21579000 3.56418000e-01
-0.18579000 2.83826800e-01
-0.15579000 2.46319100e-01
-0.12579000 2.30360700e-01
-0.09578980 2.27524400e-01
-0.06578980 2.35588400e-01
-0.03578980 2.55900700e-01
-0.00578979 2.92661200e-01
0.02421020 3.62926800e-01
0.05421020 5.03014100e-01
0.08421020 7.25239600e-01
0.11421000 8.02297800e-01
0.14421000 7.23861000e-01
0.17421000 7.33455000e-01
0.20421000 6.92932000e-01
0.23421000 5.79443000e-01
0.26421000 5.09732000e-01
0.29421000 4.44008000e-01
0.32421000 4.42802700e-01
0.35421000 4.80255700e-01
0.38421000 4.33802900e-01
0.41421000 3.64708000e-01
0.44421000 3.11361400e-01
0.47421000 2.78291800e-01
0.50421000 2.73639400e-01
0.53421000 2.92445100e-01
0.56421000 3.18155400e-01
0.59421000 2.92269000e-01
0.62421000 2.46915100e-01
0.65421000 2.22356700e-01
0.68421000 2.13012000e-01
0.71421000 2.14806400e-01
0.74421000 2.27134200e-01
0.77421000 2.35119200e-01
