# E(MeV)  S_NSDRNSDR(Total=K0+2*K1) for Gd201_DDPCX
-17.13240000 3.75234000e-01
-17.10240000 3.80029000e-01
-17.07240000 3.84782000e-01
-17.04240000 3.89373000e-01
-17.01240000 3.94098000e-01
-16.98240000 3.98997000e-01
-16.95240000 4.04045000e-01
-16.92240000 4.09229000e-01
-16.89240000 4.14545000e-01
-16.86240000 4.20000000e-01
-16.83240000 4.25604000e-01
-16.80240000 4.31366000e-01
-16.77240000 4.37298000e-01
-16.74240000 4.43415000e-01
-16.71240000 4.49738000e-01
-16.68240000 4.56287000e-01
-16.65240000 4.63090000e-01
-16.62240000 4.70187000e-01
-16.59240000 4.77621000e-01
-16.56240000 4.85460000e-01
-16.53240000 4.93802000e-01
-16.50240000 5.02797000e-01
-16.47240000 5.12681000e-01
-16.44240000 5.23882000e-01
-16.41240000 5.37172000e-01
-16.38240000 5.53795000e-01
-16.35240000 5.75353000e-01
-16.32240000 6.07799000e-01
-16.29240000 6.63888000e-01
-16.26240000 7.41720000e-01
-16.23240000 7.67175000e-01
-16.20240000 7.24445000e-01
-16.17240000 6.78296000e-01
-16.14240000 6.58239000e-01
-16.11240000 6.54701000e-01
-16.08240000 6.59450000e-01
-16.05240000 6.68771000e-01
-16.02240000 6.81024000e-01
-15.99240000 6.95486000e-01
-15.96240000 7.11835000e-01
-15.93240000 7.29950000e-01
-15.90240000 7.49856000e-01
-15.87240000 7.71675000e-01
-15.84240000 7.95591000e-01
-15.81240000 8.21838000e-01
-15.78240000 8.50727000e-01
-15.75240000 8.82645000e-01
-15.72240000 9.18071000e-01
-15.69240000 9.57602000e-01
-15.66240000 1.00197800e+00
-15.63240000 1.05213000e+00
-15.60240000 1.10923400e+00
-15.57240000 1.17480200e+00
-15.54240000 1.25077900e+00
-15.51240000 1.33973500e+00
-15.48240000 1.44509300e+00
-15.45240000 1.57150700e+00
-15.42240000 1.72542500e+00
-15.39240000 1.91600200e+00
-15.33800000 2.40341900e+00
-15.30800000 2.79342500e+00
-15.27800000 3.32371500e+00
-15.24800000 4.07203000e+00
-15.21800000 5.17723000e+00
-15.18800000 6.90502000e+00
-15.15800000 9.80453000e+00
-15.12800000 1.50950200e+01
-15.09800000 2.54313000e+01
-15.06800000 4.34150000e+01
-15.03800000 5.48685000e+01
-15.00800000 4.86427000e+01
-14.97800000 3.90382000e+01
-14.94800000 2.46505000e+01
-14.91800000 1.49398200e+01
-14.88800000 9.88489000e+00
-14.85800000 7.18535000e+00
-14.82800000 5.67544000e+00
-14.79800000 4.85884000e+00
-14.76800000 4.55734000e+00
-14.73800000 4.81502000e+00
-14.70800000 5.73358000e+00
-14.67800000 6.03651100e+00
-14.64800000 4.77659500e+00
-14.61800000 3.62982100e+00
-14.58800000 2.97464300e+00
-14.55800000 2.63435600e+00
-14.52800000 2.46603200e+00
-14.49800000 2.40485200e+00
-14.46800000 2.40109600e+00
-14.43800000 2.44748600e+00
-14.40800000 2.61852900e+00
-14.37800000 2.97986000e+00
-14.34800000 3.28024200e+00
-14.31800000 3.07846200e+00
-14.28800000 2.88357500e+00
-14.25800000 2.87720600e+00
-14.22800000 2.96586800e+00
-14.19800000 3.13542200e+00
-14.16800000 3.33512800e+00
-14.13800000 3.57739500e+00
-14.10800000 3.93588100e+00
-14.07800000 4.46051300e+00
-14.04800000 5.19616200e+00
-14.01800000 6.13505900e+00
-13.98800000 7.42360300e+00
-13.95800000 9.23442200e+00
-13.92800000 1.18812800e+01
-13.89800000 1.57026090e+01
-13.86800000 2.18771850e+01
-13.83800000 3.16080370e+01
-13.80800000 4.92321500e+01
-13.77800000 8.42307200e+01
-13.74800000 1.19529290e+02
-13.71800000 9.54580800e+01
-13.68800000 5.69799000e+01
-13.65800000 3.76850200e+01
-13.62800000 3.07425000e+01
-13.59800000 2.50114600e+01
-13.54350000 1.38889100e+01
-13.51350000 1.15921400e+01
-13.48350000 1.06031500e+01
-13.45350000 9.22282000e+00
-13.42350000 8.09499000e+00
-13.39350000 7.77457000e+00
-13.36350000 8.22713700e+00
-13.33350000 9.66709600e+00
-13.30350000 1.28560270e+01
-13.27350000 1.95664500e+01
-13.24350000 3.10169890e+01
-13.21350000 3.50950320e+01
-13.18350000 2.42983420e+01
-13.15350000 1.56301670e+01
-13.12350000 1.16626950e+01
-13.09350000 1.05076840e+01
-13.06350000 1.15097300e+01
-13.03350000 1.40905100e+01
-13.00350000 1.43571600e+01
-12.97350000 1.26615200e+01
-12.94350000 1.30946200e+01
-12.91350000 1.66842470e+01
-12.88350000 2.26365490e+01
-12.85350000 2.25447930e+01
-12.82350000 1.64914590e+01
-12.79350000 1.35346900e+01
-12.76350000 1.26901400e+01
-12.73350000 1.10350600e+01
-12.70350000 1.04329200e+01
-12.67350000 1.20716700e+01
-12.64350000 1.38555300e+01
-12.61350000 1.15157000e+01
-12.58350000 8.98563000e+00
-12.55350000 8.22242000e+00
-12.52350000 8.10874000e+00
-12.49350000 7.13759000e+00
-12.46350000 6.31598000e+00
-12.43350000 6.09235000e+00
-12.40350000 6.31487000e+00
-12.37350000 6.61273000e+00
-12.34350000 6.98492000e+00
-12.31350000 7.11606000e+00
-12.28350000 6.77186000e+00
-12.25350000 6.62942000e+00
-12.22350000 6.83209000e+00
-12.19350000 7.29697000e+00
-12.16350000 7.78420000e+00
-12.13350000 8.21231000e+00
-12.10350000 8.85598000e+00
-12.07350000 9.79155000e+00
-12.04350000 1.10716200e+01
-12.01350000 1.28225200e+01
-11.98350000 1.53044100e+01
-11.95350000 1.90102600e+01
-11.92350000 2.47665300e+01
-11.89350000 3.36657500e+01
-11.86350000 4.91976100e+01
-11.83350000 7.87604100e+01
-11.80350000 1.16497700e+02
-11.74900000 9.55348000e+01
-11.71900000 7.69420000e+01
-11.68900000 8.07423000e+01
-11.65900000 1.08925600e+02
-11.62900000 1.54301000e+02
-11.59900000 1.66243600e+02
-11.56900000 1.60537900e+02
-11.53900000 1.84007000e+02
-11.50900000 1.84456900e+02
-11.47900000 1.55640800e+02
-11.44900000 1.66789800e+02
-11.41900000 2.07656400e+02
-11.38900000 1.88794800e+02
-11.35900000 1.30839800e+02
-11.32900000 1.00118400e+02
-11.29900000 8.32551000e+01
-11.26900000 7.99820000e+01
-11.23900000 9.68891000e+01
-11.20900000 1.06844800e+02
-11.17900000 7.86453800e+01
-11.14900000 5.24141800e+01
-11.11900000 3.92583000e+01
-11.08900000 3.26769600e+01
-11.05900000 2.89806800e+01
-11.02900000 2.78763400e+01
-10.99900000 2.93643400e+01
-10.96900000 3.27477200e+01
-10.93900000 3.37070000e+01
-10.90900000 3.43762600e+01
-10.87900000 3.49454000e+01
-10.84900000 3.72610800e+01
-10.81900000 4.29767000e+01
-10.78900000 5.34868000e+01
-10.75900000 7.16550000e+01
-10.72900000 9.69247000e+01
-10.69900000 1.33305700e+02
-10.66900000 1.78461000e+02
-10.63900000 1.80488000e+02
-10.60900000 1.58063800e+02
-10.57900000 1.79288200e+02
-10.54900000 2.39684000e+02
-10.51900000 2.40416700e+02
-10.48900000 1.78372300e+02
-10.45900000 1.39500100e+02
-10.42900000 1.37722000e+02
-10.39900000 1.65318700e+02
-10.36900000 1.93443200e+02
-10.33900000 1.91659000e+02
-10.30900000 1.47114600e+02
-10.27900000 1.18956500e+02
-10.24900000 1.17199700e+02
-10.21900000 1.37753400e+02
-10.18900000 1.79981000e+02
-10.15900000 2.48912600e+02
-10.12900000 3.74786000e+02
-10.09900000 4.87196000e+02
-10.06900000 5.28438000e+02
-10.03900000 4.58771400e+02
-10.00900000 3.39204000e+02
-9.95456000 2.04384200e+02
-9.92456000 1.92757600e+02
-9.89456000 2.17918800e+02
-9.86456000 2.53990800e+02
-9.83456000 3.30600700e+02
-9.80456000 5.00033300e+02
-9.77456000 7.04608600e+02
-9.74456000 6.25820100e+02
-9.71456000 4.10456300e+02
-9.68456000 2.67212200e+02
-9.65456000 1.97706900e+02
-9.62456000 1.58858200e+02
-9.59456000 1.24895000e+02
-9.56456000 1.08701000e+02
-9.53456000 1.13355000e+02
-9.50456000 1.36621200e+02
-9.47456000 1.66881500e+02
-9.44456000 1.85867600e+02
-9.41456000 1.57844000e+02
-9.38456000 1.38076300e+02
-9.35456000 1.53989100e+02
-9.32456000 1.67606700e+02
-9.29456000 1.58143800e+02
-9.26456000 1.39888900e+02
-9.23456000 1.06326200e+02
-9.20456000 8.31431000e+01
-9.17456000 7.46584000e+01
-9.14456000 7.48406000e+01
-9.11456000 8.32201000e+01
-9.08456000 1.09412900e+02
-9.05456000 1.63495800e+02
-9.02456000 2.11712500e+02
-8.99456000 1.87528100e+02
-8.96456000 1.55681200e+02
-8.93456000 1.38376500e+02
-8.90456000 1.30274700e+02
-8.87456000 1.52075300e+02
-8.84456000 2.09305100e+02
-8.81456000 2.81531000e+02
-8.78456000 2.59097300e+02
-8.75456000 1.71635600e+02
-8.72456000 1.18232700e+02
-8.69456000 9.06425000e+01
-8.66456000 7.16127000e+01
-8.63456000 6.36518000e+01
-8.60456000 6.66789000e+01
-8.57456000 7.92764000e+01
-8.54456000 9.00544000e+01
-8.51456000 9.78811000e+01
-8.48456000 1.21554100e+02
-8.45456000 1.71820800e+02
-8.42456000 2.36605800e+02
-8.39456000 2.32829600e+02
-8.36456000 1.64423900e+02
-8.33456000 1.27263200e+02
-8.30456000 1.18265000e+02
-8.27456000 1.16608000e+02
-8.24456000 1.06545500e+02
-8.21456000 1.02797900e+02
-8.16008000 1.25758200e+02
-8.13008000 1.31090100e+02
-8.10008000 1.34841500e+02
-8.07008000 1.67328100e+02
-8.04008000 2.26945000e+02
-8.01008000 2.52100900e+02
-7.98008000 2.29332800e+02
-7.95008000 1.88958900e+02
-7.92008000 1.29309930e+02
-7.89008000 8.42355200e+01
-7.86008000 5.98596100e+01
-7.83008000 4.55072500e+01
-7.80008000 3.58655900e+01
-7.77008000 3.02130300e+01
-7.74008000 2.67697400e+01
-7.71008000 2.39057400e+01
-7.68008000 2.25237600e+01
-7.65008000 2.11683000e+01
-7.62008000 1.80836700e+01
-7.59008000 1.55390900e+01
-7.56008000 1.41400800e+01
-7.53008000 1.36652300e+01
-7.50008000 1.39691300e+01
-7.47008000 1.50355300e+01
-7.44008000 1.72464300e+01
-7.41008000 2.19773400e+01
-7.38008000 2.95797300e+01
-7.35008000 3.81402300e+01
-7.32008000 3.77893600e+01
-7.29008000 3.18824900e+01
-7.26008000 2.81488100e+01
-7.23008000 2.43088800e+01
-7.20008000 2.39769300e+01
-7.17008000 2.51746400e+01
-7.14008000 2.39408400e+01
-7.11008000 2.49667100e+01
-7.08008000 2.93369200e+01
-7.05008000 3.54332500e+01
-7.02008000 4.60406600e+01
-6.99008000 5.64640500e+01
-6.96008000 6.61245900e+01
-6.93008000 8.67570100e+01
-6.90008000 9.35067400e+01
-6.87008000 7.19855300e+01
-6.84008000 5.33261500e+01
-6.81008000 4.58424100e+01
-6.78008000 4.78235000e+01
-6.75008000 6.17184000e+01
-6.72008000 9.51527000e+01
-6.69008000 1.40525200e+02
-6.66008000 1.41171200e+02
-6.63008000 9.53244000e+01
-6.60008000 5.93653000e+01
-6.57008000 4.16302000e+01
-6.54008000 3.43235000e+01
-6.51008000 3.23884600e+01
-6.48008000 3.15117000e+01
-6.45008000 2.96961100e+01
-6.42008000 2.89963300e+01
-6.36561000 3.47435000e+01
-6.33561000 4.72777200e+01
-6.30561000 7.30551400e+01
-6.27561000 1.00909990e+02
-6.24561000 9.03804000e+01
-6.21561000 6.36693000e+01
-6.18561000 4.20363000e+01
-6.15561000 2.85209300e+01
-6.12561000 2.15913400e+01
-6.09561000 1.84948700e+01
-6.06561000 1.68280700e+01
-6.03561000 1.62932300e+01
-6.00561000 1.56240600e+01
-5.97561000 1.38390500e+01
-5.94561000 1.30681800e+01
-5.91561000 1.40877700e+01
-5.88561000 1.64836800e+01
-5.85561000 1.98088700e+01
-5.82561000 2.49933200e+01
-5.79561000 2.78718700e+01
-5.76561000 2.51237800e+01
-5.73561000 2.51478800e+01
-5.70561000 3.13662300e+01
-5.67561000 4.71781000e+01
-5.64561000 7.14004800e+01
-5.61561000 7.81667000e+01
-5.58561000 6.10111000e+01
-5.55561000 4.20687000e+01
-5.52561000 2.87985000e+01
-5.49561000 2.15313300e+01
-5.46561000 1.90790100e+01
-5.43561000 1.96024800e+01
-5.40561000 2.15709000e+01
-5.37561000 2.31292200e+01
-5.34561000 2.14733500e+01
-5.31561000 1.91218500e+01
-5.28561000 1.92750000e+01
-5.25561000 2.39691400e+01
-5.22561000 3.29489800e+01
-5.19561000 3.43818500e+01
-5.16561000 2.51158900e+01
-5.13561000 1.93702600e+01
-5.10561000 1.82263800e+01
-5.07561000 1.80105200e+01
-5.04561000 1.73396700e+01
-5.01561000 1.51049800e+01
-4.98561000 1.34500200e+01
-4.95561000 1.37676800e+01
-4.92561000 1.55854400e+01
-4.89561000 1.57167500e+01
-4.86561000 1.45652200e+01
-4.83561000 1.54459200e+01
-4.80561000 1.95308000e+01
-4.77561000 2.89692700e+01
-4.74561000 4.62330900e+01
-4.71561000 5.91353800e+01
-4.68561000 4.89348000e+01
-4.65561000 3.28769300e+01
-4.62561000 2.25797100e+01
-4.57114000 1.59950700e+01
-4.54114000 1.54325600e+01
-4.51114000 1.44279700e+01
-4.48114000 1.40523000e+01
-4.45114000 1.61857500e+01
-4.42114000 2.22853700e+01
-4.39114000 3.41828100e+01
-4.36114000 4.34182400e+01
-4.33114000 3.45954500e+01
-4.30114000 2.40232600e+01
-4.27114000 1.94319600e+01
-4.24114000 1.94174900e+01
-4.21114000 2.28665600e+01
-4.18114000 3.09176200e+01
-4.15114000 4.60796400e+01
-4.12114000 6.32170600e+01
-4.09114000 5.75355300e+01
-4.06114000 4.48095200e+01
-4.03114000 4.32782500e+01
-4.00114000 3.99888500e+01
-3.97114000 3.06347500e+01
-3.94114000 2.32456700e+01
-3.91114000 2.10739700e+01
-3.88114000 1.95293900e+01
-3.85114000 1.58213600e+01
-3.82114000 1.39070100e+01
-3.79114000 1.40845800e+01
-3.76114000 1.45473900e+01
-3.73114000 1.53483100e+01
-3.70114000 1.57769100e+01
-3.67114000 1.61780800e+01
-3.64114000 1.65307300e+01
-3.61114000 1.75364000e+01
-3.58114000 1.98711300e+01
-3.55114000 2.04236200e+01
-3.52114000 2.17248000e+01
-3.49114000 2.84633030e+01
-3.46114000 3.50334440e+01
-3.43114000 2.98941100e+01
-3.40114000 2.33450200e+01
-3.37114000 2.19737700e+01
-3.34114000 2.44031400e+01
-3.31114000 2.65189600e+01
-3.28114000 3.03724900e+01
-3.25114000 4.06061600e+01
-3.22114000 5.23680720e+01
-3.19114000 4.87742100e+01
-3.16114000 3.32566410e+01
-3.13114000 2.39564660e+01
-3.10114000 2.03309460e+01
-3.07114000 1.86210250e+01
-3.04114000 1.61562350e+01
-3.01114000 1.52821280e+01
-2.98114000 1.59384900e+01
-2.95114000 1.82208990e+01
-2.92114000 2.21966140e+01
-2.89114000 2.53579060e+01
-2.86114000 3.00487430e+01
-2.83114000 3.98002800e+01
-2.77667000 3.22224800e+01
-2.74667000 2.50270500e+01
-2.71667000 2.39826070e+01
-2.68667000 2.14606690e+01
-2.65667000 1.62591710e+01
-2.62667000 1.28071580e+01
-2.59667000 1.04630970e+01
-2.56667000 8.76594000e+00
-2.53667000 8.04376000e+00
-2.50667000 8.54815000e+00
-2.47667000 9.15382000e+00
-2.44667000 7.93147000e+00
-2.41667000 6.37584000e+00
-2.38667000 5.87481000e+00
-2.35667000 6.30401000e+00
-2.32667000 7.43515000e+00
-2.29667000 8.97754000e+00
-2.26667000 1.18198800e+01
-2.23667000 1.62557700e+01
-2.20667000 1.77032700e+01
-2.17667000 1.46269800e+01
-2.14667000 1.02708500e+01
-2.11667000 7.19784000e+00
-2.08667000 5.44531800e+00
-2.05667000 4.43784300e+00
-2.02667000 3.74818600e+00
-1.99667000 3.34818500e+00
-1.96667000 3.22638000e+00
-1.93667000 3.33530000e+00
-1.90667000 3.68799000e+00
-1.87667000 4.18187000e+00
-1.84667000 4.85944000e+00
-1.81667000 5.82898000e+00
-1.78667000 7.14349000e+00
-1.75667000 7.99758000e+00
-1.72667000 8.19076000e+00
-1.69667000 8.89074000e+00
-1.66667000 8.30544000e+00
-1.63667000 6.66029000e+00
-1.60667000 5.61248000e+00
-1.57667000 5.86299000e+00
-1.54667000 7.33315000e+00
-1.51667000 8.12804000e+00
-1.48667000 6.89680000e+00
-1.45667000 5.51160600e+00
-1.42667000 4.97786800e+00
-1.39667000 5.25868800e+00
-1.36667000 5.85127200e+00
-1.33667000 6.34940000e+00
-1.30667000 7.66026000e+00
-1.27667000 9.18064000e+00
-1.24667000 8.07775000e+00
-1.21667000 5.81996500e+00
-1.18667000 4.53339700e+00
-1.15667000 3.88635600e+00
-1.12667000 3.61423300e+00
-1.09667000 3.75148600e+00
-1.06667000 3.84578100e+00
-1.03667000 3.75112000e+00
-0.98220100 4.01239100e+00
-0.95220100 4.86880800e+00
-0.92220100 5.77462800e+00
-0.89220100 5.25522500e+00
-0.86220100 4.56336300e+00
-0.83220100 4.47379700e+00
-0.80220100 4.77058200e+00
-0.77220100 5.12216200e+00
-0.74220100 5.40042400e+00
-0.71220100 6.37597900e+00
-0.68220100 8.49189000e+00
-0.65220100 1.17436200e+01
-0.62220100 1.51517000e+01
-0.59220100 1.66782500e+01
-0.56220100 1.49166330e+01
-0.53220100 1.35366970e+01
-0.50220100 1.26829300e+01
-0.47220100 1.08880510e+01
-0.44220100 9.14240000e+00
-0.41220100 7.48572000e+00
-0.38220100 6.06579000e+00
-0.35220100 4.97095000e+00
-0.32220100 4.55401000e+00
-0.29220100 4.44693000e+00
-0.26220100 4.18259000e+00
-0.23220100 4.16873000e+00
-0.20220100 4.30666100e+00
-0.17220100 4.37888000e+00
-0.14220100 4.56875000e+00
-0.11220100 4.40665000e+00
-0.08220100 4.22122300e+00
-0.05220100 4.03837600e+00
-0.02220100 3.77131400e+00
0.00779905 3.75417800e+00
0.03779900 4.08864900e+00
0.06779900 4.75260000e+00
0.09779900 5.49417000e+00
0.12779900 6.31261000e+00
0.15779900 7.98500000e+00
0.18779900 9.92167000e+00
0.21779900 9.16175400e+00
0.24779900 6.55880500e+00
0.27779900 4.65306800e+00
0.30779900 3.73736800e+00
0.33779900 3.13151200e+00
0.36779900 2.61919300e+00
0.39779900 2.29227400e+00
0.42779900 2.11302300e+00
0.45779900 2.08872800e+00
0.48779900 2.20908300e+00
0.51779900 2.42283600e+00
0.54779900 2.75961500e+00
0.57779900 3.12053400e+00
0.60779900 3.14951100e+00
0.63779900 2.82632400e+00
0.66779900 2.57097000e+00
0.69779900 2.56303800e+00
0.72779900 2.85142600e+00
0.75779900 3.37260000e+00
