# E(MeV)  S_NSDRNSDR(K=1) for Hg211_DDPCX
-6.46334000 -8.50519000e-02
-6.43334000 -8.26470000e-02
-6.40334000 -8.02865000e-02
-6.37334000 -7.79686000e-02
-6.34334000 -7.56914000e-02
-6.31334000 -7.34530000e-02
-6.28334000 -7.12519000e-02
-6.25334000 -6.90865000e-02
-6.22334000 -6.69550000e-02
-6.19334000 -6.48561000e-02
-6.16334000 -6.27882000e-02
-6.13334000 -6.07499000e-02
-6.10334000 -5.87397000e-02
-6.07334000 -5.67562000e-02
-6.04334000 -5.47980000e-02
-6.01334000 -5.28637000e-02
-5.98334000 -5.09519000e-02
-5.95334000 -4.90609000e-02
-5.92334000 -4.71893000e-02
-5.89334000 -4.53353000e-02
-5.86334000 -4.34970000e-02
-5.83334000 -4.16723000e-02
-5.80334000 -3.98588000e-02
-5.77334000 -3.80532000e-02
-5.73578000 -3.57974000e-02
-5.70578000 -3.39923000e-02
-5.67578000 -3.21740000e-02
-5.64578000 -3.03268000e-02
-5.61578000 -2.84220000e-02
-5.58578000 -2.64022000e-02
-5.55578000 -2.41417000e-02
-5.52578000 -2.13678000e-02
-5.49578000 -1.78180000e-02
-5.46578000 -1.51458000e-02
-5.43578000 -1.49339000e-02
-5.40578000 -1.44891000e-02
-5.37578000 -1.32494000e-02
-5.34578000 -1.15242000e-02
-5.31578000 -9.45793000e-03
-5.28578000 -7.05408000e-03
-5.25578000 -4.21547000e-03
-5.22578000 -7.24611000e-04
-5.19578000 3.84541000e-03
-5.16578000 1.03560000e-02
-5.13578000 2.06652000e-02
-5.10578000 3.90093000e-02
-5.07578000 7.40582000e-02
-5.04578000 1.25550000e-01
-5.00821000 1.15570000e-01
-4.97821000 6.83952000e-02
-4.94821000 4.16424000e-02
-4.91821000 2.90145000e-02
-4.88821000 2.30018000e-02
-4.85821000 2.01694000e-02
-4.82821000 1.89959000e-02
-4.79821000 1.87591000e-02
-4.76821000 1.90886000e-02
-4.73821000 1.97816000e-02
-4.70821000 2.07201000e-02
-4.67821000 2.18324000e-02
-4.64821000 2.30733000e-02
-4.61821000 2.44134000e-02
-4.58821000 2.58332000e-02
-4.55821000 2.73197000e-02
-4.52821000 2.88641000e-02
-4.49821000 3.04607000e-02
-4.46821000 3.21058000e-02
-4.43821000 3.37974000e-02
-4.40821000 3.55349000e-02
-4.37821000 3.73183000e-02
-4.34821000 3.91488000e-02
-4.31821000 4.10282000e-02
-4.28065000 4.34545000e-02
-4.25065000 4.54551000e-02
-4.22065000 4.75162000e-02
-4.19065000 4.96430000e-02
-4.16065000 5.18420000e-02
-4.13065000 5.41210000e-02
-4.10065000 5.64891000e-02
-4.07065000 5.89576000e-02
-4.04065000 6.15401000e-02
-4.01065000 6.42530000e-02
-3.98065000 6.71170000e-02
-3.95065000 7.01579000e-02
-3.92065000 7.34084000e-02
-3.89065000 7.69105000e-02
-3.86065000 8.07196000e-02
-3.83065000 8.49092000e-02
-3.80065000 8.95793000e-02
-3.77065000 9.48692000e-02
-3.74065000 1.00978000e-01
-3.71065000 1.08196000e-01
-3.68065000 1.16968000e-01
-3.65065000 1.27991000e-01
-3.62065000 1.42416000e-01
-3.59065000 1.62242000e-01
-3.55309000 2.00622000e-01
-3.52309000 2.52085000e-01
-3.49309000 3.42196000e-01
-3.46309000 5.15035000e-01
-3.43309000 8.49050000e-01
-3.40309000 1.23419000e+00
-3.37309000 1.05809000e+00
-3.34309000 6.57756000e-01
-3.31309000 4.29060000e-01
-3.28309000 3.16930000e-01
-3.25309000 2.59486000e-01
-3.22309000 2.28557000e-01
-3.19309000 2.11728000e-01
-3.16309000 2.03235000e-01
-3.13309000 2.00188000e-01
-3.10309000 2.00172000e-01
-3.07309000 2.02002000e-01
-3.04309000 2.06412000e-01
-3.01309000 2.12738000e-01
-2.98309000 2.20879000e-01
-2.95309000 2.31535000e-01
-2.92309000 2.45812000e-01
-2.89309000 2.65763000e-01
-2.86309000 2.94534000e-01
-2.82553000 3.51829000e-01
-2.79553000 4.27894000e-01
-2.76553000 5.43884000e-01
-2.73553000 6.19412000e-01
-2.70553000 5.97197000e-01
-2.67553000 5.87325000e-01
-2.64553000 6.12377000e-01
-2.61553000 6.66445000e-01
-2.58553000 7.83178000e-01
-2.55553000 9.19137000e-01
-2.52553000 1.04348000e+00
-2.49553000 1.30679000e+00
-2.46553000 1.92354000e+00
-2.43553000 2.64240000e+00
-2.40553000 2.36868000e+00
-2.37553000 1.86669000e+00
-2.34553000 1.88769000e+00
-2.31553000 2.13458000e+00
-2.28553000 1.77075000e+00
-2.25553000 1.25230000e+00
-2.22553000 9.72307000e-01
-2.19553000 8.42814000e-01
-2.16553000 7.87795000e-01
-2.13553000 7.72877000e-01
-2.09797000 7.88427000e-01
-2.06797000 8.20562000e-01
-2.03797000 8.67676000e-01
-2.00797000 9.29612000e-01
-1.97797000 1.00766000e+00
-1.94797000 1.10446000e+00
-1.91797000 1.22420000e+00
-1.88797000 1.37309000e+00
-1.85797000 1.56030000e+00
-1.82797000 1.79949000e+00
-1.79797000 2.11149000e+00
-1.76797000 2.52926000e+00
-1.73797000 3.10705000e+00
-1.70797000 3.93899000e+00
-1.67797000 5.19863000e+00
-1.64797000 7.22959000e+00
-1.61797000 1.07683000e+01
-1.58797000 1.74919000e+01
-1.55797000 3.08270000e+01
-1.52797000 5.06539000e+01
-1.49797000 5.07449000e+01
-1.46797000 3.12526000e+01
-1.43797000 1.83601000e+01
-1.40797000 1.22036000e+01
-1.37041000 9.17983000e+00
-1.34041000 8.84087000e+00
-1.31041000 9.27753000e+00
-1.28041000 1.08368000e+01
-1.25041000 1.44589000e+01
-1.22041000 1.64238000e+01
-1.19041000 1.43195000e+01
-1.16041000 1.03026000e+01
-1.13041000 7.91739000e+00
-1.10041000 7.21834000e+00
-1.07041000 7.11734000e+00
-1.04041000 7.32300000e+00
-1.01041000 8.35797000e+00
-0.98041200 1.00995000e+01
-0.95041200 1.28274000e+01
-0.92041200 1.81098000e+01
-0.89041200 2.86425000e+01
-0.86041200 4.98594000e+01
-0.83041200 8.26416000e+01
-0.80041200 8.64542000e+01
-0.77041200 5.64060000e+01
-0.74041200 3.48031000e+01
-0.71041200 2.36282000e+01
-0.68041200 1.89128000e+01
-0.64285100 1.47210000e+01
-0.61285100 1.22129000e+01
-0.58285100 1.00763000e+01
-0.55285100 8.68581000e+00
-0.52285100 8.63944000e+00
-0.49285100 8.67233000e+00
-0.46285100 8.11126000e+00
-0.43285100 8.49647000e+00
-0.40285100 9.73358000e+00
-0.37285100 8.45101000e+00
-0.34285100 5.95350000e+00
-0.31285100 4.36482000e+00
-0.28285100 3.49054000e+00
-0.25285100 3.06814000e+00
-0.22285100 3.00811000e+00
-0.19285100 3.34517000e+00
-0.16285100 4.29556000e+00
-0.13285100 5.70595000e+00
-0.10285100 5.51310000e+00
-0.07285120 4.23760000e+00
-0.04285120 3.64554000e+00
-0.01285120 3.62670000e+00
0.01714880 4.05377000e+00
0.04714880 5.22739000e+00
0.08470940 8.62502000e+00
0.11470900 1.22537000e+01
0.14470900 1.27941000e+01
0.17470900 1.40205000e+01
0.20470900 1.80949000e+01
0.23470900 1.75912000e+01
0.26470900 1.39582000e+01
0.29470900 1.02673000e+01
0.32470900 6.73345000e+00
0.35470900 4.74213000e+00
0.38470900 3.77726000e+00
0.41470900 3.37721000e+00
0.44470900 3.36621000e+00
0.47470900 3.75098000e+00
0.50470900 4.72805000e+00
0.53470900 6.80674000e+00
0.56470900 1.06231000e+01
0.59470900 1.51091000e+01
0.62470900 1.59536000e+01
0.65470900 1.10877000e+01
0.68470900 7.18273000e+00
0.71470900 5.35572000e+00
0.74470900 4.34689000e+00
0.77470900 3.84011000e+00
