# E(MeV)  S_GAMTGAMT(Total=K0+2*K1) for Ho185_DDPCX
-9.08701000 9.03621000e-03
-9.05701000 8.94897000e-03
-9.02701000 8.80579000e-03
-8.99701000 8.74500000e-03
-8.96701000 8.73522000e-03
-8.93701000 8.74944000e-03
-8.90701000 8.77525000e-03
-8.87701000 8.80651000e-03
-8.84701000 8.83949000e-03
-8.81701000 8.87034000e-03
-8.78701000 8.89305000e-03
-8.75701000 8.90034000e-03
-8.72701000 8.91365000e-03
-8.69701000 8.96031000e-03
-8.66701000 8.98855000e-03
-8.63701000 9.03339000e-03
-8.60701000 9.13492000e-03
-8.57701000 9.22970000e-03
-8.54701000 9.30465000e-03
-8.51701000 9.36939000e-03
-8.48701000 9.42963000e-03
-8.45701000 9.48793000e-03
-8.42701000 9.54550000e-03
-8.39701000 9.60290000e-03
-8.36701000 9.66050000e-03
-8.33701000 9.71848000e-03
-8.30701000 9.77696000e-03
-8.27701000 9.83604000e-03
-8.24701000 9.89577000e-03
-8.21701000 9.95620000e-03
-8.18701000 1.00173600e-02
-8.15701000 1.00793200e-02
-8.09708000 1.02055100e-02
-8.06708000 1.02699900e-02
-8.03708000 1.03353400e-02
-8.00708000 1.04016200e-02
-7.97708000 1.04688500e-02
-7.94708000 1.05370800e-02
-7.91708000 1.06063100e-02
-7.88708000 1.06766000e-02
-7.85708000 1.07479700e-02
-7.82708000 1.08204600e-02
-7.79708000 1.08940900e-02
-7.76708000 1.09689200e-02
-7.73708000 1.10449800e-02
-7.70708000 1.11223300e-02
-7.67708000 1.12009700e-02
-7.64708000 1.12809900e-02
-7.61708000 1.13624100e-02
-7.58708000 1.14453200e-02
-7.55708000 1.15297400e-02
-7.52708000 1.16157400e-02
-7.49708000 1.17033700e-02
-7.46708000 1.17927300e-02
-7.43708000 1.18838900e-02
-7.40708000 1.19768800e-02
-7.37708000 1.20718400e-02
-7.34708000 1.21688300e-02
-7.31708000 1.22679600e-02
-7.28708000 1.23693200e-02
-7.25708000 1.24730600e-02
-7.22708000 1.25792600e-02
-7.19708000 1.26881100e-02
-7.16708000 1.27997600e-02
-7.10716000 1.30319100e-02
-7.07716000 1.31531600e-02
-7.04716000 1.32781400e-02
-7.01716000 1.34072500e-02
-6.98716000 1.35409800e-02
-6.95716000 1.36799700e-02
-6.92716000 1.38252400e-02
-6.89716000 1.39783300e-02
-6.86716000 1.41418900e-02
-6.83716000 1.43211100e-02
-6.80716000 1.45259800e-02
-6.77716000 1.47678600e-02
-6.74716000 1.50269100e-02
-6.71716000 1.53052100e-02
-6.68716000 1.57283500e-02
-6.65716000 1.62795300e-02
-6.62716000 1.64103600e-02
-6.59716000 1.62369000e-02
-6.56716000 1.62211000e-02
-6.53716000 1.63437000e-02
-6.50716000 1.65482100e-02
-6.47716000 1.68186300e-02
-6.44716000 1.71647500e-02
-6.41716000 1.75673900e-02
-6.38716000 1.78593200e-02
-6.35716000 1.80647200e-02
-6.32716000 1.83488000e-02
-6.29716000 1.87137400e-02
-6.26716000 1.91453300e-02
-6.23716000 1.96438500e-02
-6.20716000 2.02199500e-02
-6.17716000 2.08919600e-02
-6.11723000 2.26399100e-02
-6.08723000 2.38403300e-02
-6.05723000 2.54024100e-02
-6.02723000 2.75353600e-02
-5.99723000 3.06341900e-02
-5.96723000 3.55050800e-02
-5.93723000 4.39257600e-02
-5.90723000 5.98650600e-02
-5.87723000 8.87101000e-02
-5.84723000 1.11530900e-01
-5.81723000 9.17053000e-02
-5.78723000 7.02001000e-02
-5.75723000 6.46752000e-02
-5.72723000 7.17647000e-02
-5.69723000 8.19955000e-02
-5.66723000 7.68909000e-02
-5.63723000 7.23691000e-02
-5.60723000 8.03291000e-02
-5.57723000 1.03926600e-01
-5.54723000 1.45063000e-01
-5.51723000 1.53436800e-01
-5.48723000 1.17898600e-01
-5.45723000 9.21818000e-02
-5.42723000 7.67041000e-02
-5.39723000 7.06363000e-02
-5.36723000 7.19615000e-02
-5.33723000 7.97753000e-02
-5.30723000 9.60839000e-02
-5.27723000 1.25938700e-01
-5.24723000 1.74016800e-01
-5.21723000 2.57317600e-01
-5.18723000 3.75170100e-01
-5.12730000 2.91188800e-01
-5.09730000 2.46128800e-01
-5.06730000 2.41659800e-01
-5.03730000 2.88393800e-01
-5.00730000 3.61393700e-01
-4.97730000 3.93859700e-01
-4.94730000 3.40868800e-01
-4.91730000 2.66747900e-01
-4.88730000 2.50656500e-01
-4.85730000 2.93603600e-01
-4.82730000 4.06431000e-01
-4.79730000 5.22205000e-01
-4.76730000 4.69817000e-01
-4.73730000 3.82177000e-01
-4.70730000 3.20605800e-01
-4.67730000 3.13369200e-01
-4.64730000 3.75479200e-01
-4.61730000 4.57268800e-01
-4.58730000 5.08173800e-01
-4.55730000 6.42110600e-01
-4.52730000 8.35665200e-01
-4.49730000 1.07630900e+00
-4.46730000 1.39210400e+00
-4.43730000 1.23726600e+00
-4.40730000 7.58841000e-01
-4.37730000 4.57508800e-01
-4.34730000 3.06837400e-01
-4.31730000 2.30290200e-01
-4.28730000 1.92442000e-01
-4.25730000 1.80454600e-01
-4.22730000 1.94850800e-01
-4.19730000 2.49153600e-01
-4.13737000 3.62382600e-01
-4.10737000 2.71702700e-01
-4.07737000 2.27793800e-01
-4.04737000 2.39085900e-01
-4.01737000 2.21497400e-01
-3.98737000 1.58020100e-01
-3.95737000 1.15100300e-01
-3.92737000 9.23140000e-02
-3.89737000 7.85798000e-02
-3.86737000 6.98223000e-02
-3.83737000 6.42236000e-02
-3.80737000 6.05236000e-02
-3.77737000 5.80299000e-02
-3.74737000 5.63678000e-02
-3.71737000 5.53271000e-02
-3.68737000 5.47924000e-02
-3.65737000 5.47130000e-02
-3.62737000 5.50969000e-02
-3.59737000 5.60290000e-02
-3.56737000 5.77314000e-02
-3.53737000 6.07222000e-02
-3.50737000 6.61844000e-02
-3.47737000 7.61150000e-02
-3.44737000 8.73633000e-02
-3.41737000 8.61851000e-02
-3.38737000 8.16604000e-02
-3.35737000 8.33083000e-02
-3.32737000 8.65299000e-02
-3.29737000 9.37096000e-02
-3.26737000 1.01929100e-01
-3.23737000 9.73118000e-02
-3.20737000 9.28002000e-02
-3.14744000 9.62758000e-02
-3.11744000 1.03858400e-01
-3.08744000 1.17031800e-01
-3.05744000 1.38753000e-01
-3.02744000 1.76019300e-01
-2.99744000 2.45123100e-01
-2.96744000 3.81149400e-01
-2.93744000 6.03356400e-01
-2.90744000 6.64485900e-01
-2.87744000 4.57928900e-01
-2.84744000 3.02858600e-01
-2.81744000 2.30984100e-01
-2.78744000 2.03491100e-01
-2.75744000 2.01122400e-01
-2.72744000 2.21157800e-01
-2.69744000 2.64527300e-01
-2.66744000 2.91234300e-01
-2.63744000 2.65440600e-01
-2.60744000 2.55423800e-01
-2.57744000 2.81382900e-01
-2.54744000 3.32371800e-01
-2.51744000 3.48554000e-01
-2.48744000 3.61553000e-01
-2.45744000 4.32336000e-01
-2.42744000 5.96900000e-01
-2.39744000 9.18757000e-01
-2.36744000 1.26487000e+00
-2.33744000 1.10036200e+00
-2.30744000 7.44606000e-01
-2.27744000 5.54096000e-01
-2.24744000 4.80482000e-01
-2.21744000 4.69501000e-01
-2.15751000 5.71790000e-01
-2.12751000 6.96887000e-01
-2.09751000 9.06050000e-01
-2.06751000 1.24696000e+00
-2.03751000 1.79847500e+00
-2.00751000 2.83996000e+00
-1.97751000 4.46292400e+00
-1.94751000 4.76449700e+00
-1.91751000 3.62902600e+00
-1.88751000 3.27887400e+00
-1.85751000 3.89072800e+00
-1.82751000 5.02533200e+00
-1.79751000 6.32269500e+00
-1.76751000 5.27078100e+00
-1.73751000 3.31982200e+00
-1.70751000 2.26822900e+00
-1.67751000 1.87190900e+00
-1.64751000 1.90784600e+00
-1.61751000 2.36224200e+00
-1.58751000 2.93632600e+00
-1.55751000 2.97069000e+00
-1.52751000 3.31914400e+00
-1.49751000 4.33127000e+00
-1.46751000 4.73812000e+00
-1.43751000 4.61962600e+00
-1.40751000 4.83103800e+00
-1.37751000 3.86995400e+00
-1.34751000 2.75200600e+00
-1.31751000 2.30692000e+00
-1.28751000 2.39535400e+00
-1.25751000 3.02934600e+00
-1.22751000 4.55133600e+00
-1.16759000 1.08811300e+01
-1.13759000 9.05546200e+00
-1.10759000 5.94208600e+00
-1.07759000 4.68187600e+00
-1.04759000 3.87305000e+00
-1.01759000 2.67185400e+00
-0.98758600 1.87340700e+00
-0.95758600 1.47327100e+00
-0.92758600 1.32801300e+00
-0.89758600 1.27859500e+00
-0.86758600 1.10553100e+00
-0.83758600 8.58705000e-01
-0.80758600 6.91302000e-01
-0.77758600 6.02624000e-01
-0.74758600 5.71603000e-01
-0.71758600 5.90350000e-01
-0.68758600 6.72013000e-01
-0.65758600 8.57559000e-01
-0.62758600 1.23150900e+00
-0.59758600 1.82686600e+00
-0.56758600 2.10829300e+00
-0.53758600 1.55029100e+00
-0.50758600 1.02876100e+00
-0.47758600 7.79222000e-01
-0.44758600 6.74630000e-01
-0.41758600 6.62057000e-01
-0.38758600 7.36340000e-01
-0.35758600 9.24741000e-01
-0.32758600 1.28390400e+00
-0.29758600 1.88934100e+00
-0.26758600 2.96406800e+00
-0.23758600 4.10523800e+00
-0.17765800 2.47601000e+00
-0.14765800 1.57868200e+00
-0.11765800 1.15871900e+00
-0.08765820 9.81717000e-01
-0.05765820 9.82875000e-01
-0.02765820 1.10408400e+00
0.00234179 1.29832300e+00
0.03234180 1.25946800e+00
0.06234180 1.04597200e+00
0.09234180 8.16649000e-01
0.12234200 6.93185000e-01
0.15234200 7.19185600e-01
0.18234200 8.73066600e-01
0.21234200 1.08277700e+00
0.24234200 1.31796540e+00
0.27234200 1.33901790e+00
0.30234200 9.94379900e-01
0.33234200 6.82782800e-01
0.36234200 5.36109000e-01
0.39234200 5.02974600e-01
0.42234200 5.62007800e-01
0.45234200 7.41600000e-01
0.48234200 1.02796590e+00
0.51234200 1.00404670e+00
0.54234200 7.10555600e-01
0.57234200 5.41549200e-01
0.60234200 5.15377000e-01
0.63234200 5.83004000e-01
0.66234200 5.92814000e-01
0.69234200 5.08282000e-01
0.72234200 4.82924000e-01
0.75234200 5.09609000e-01
