# E(MeV)  S_NSDRNSDR(K=1) for Ir240_DDPCX
-17.10510000 9.85137000e-02
-17.07510000 9.99834000e-02
-17.04510000 1.01026000e-01
-17.01510000 1.01644000e-01
-16.98510000 1.01392000e-01
-16.95510000 1.01047000e-01
-16.92510000 1.03291000e-01
-16.89510000 1.06080000e-01
-16.86510000 1.08034000e-01
-16.83510000 1.09472000e-01
-16.80510000 1.10657000e-01
-16.77510000 1.11710000e-01
-16.74510000 1.12685000e-01
-16.71510000 1.13611000e-01
-16.68510000 1.14503000e-01
-16.65510000 1.15369000e-01
-16.62510000 1.16215000e-01
-16.59510000 1.17042000e-01
-16.56510000 1.17852000e-01
-16.53510000 1.18645000e-01
-16.50510000 1.19418000e-01
-16.47510000 1.20167000e-01
-16.44510000 1.20881000e-01
-16.41510000 1.21547000e-01
-16.38510000 1.22137000e-01
-16.35510000 1.22602000e-01
-16.32510000 1.22847000e-01
-16.29510000 1.22669000e-01
-16.26510000 1.21618000e-01
-16.23510000 1.18688000e-01
-16.20510000 1.12771000e-01
-16.17510000 1.09707000e-01
-16.14510000 1.16718000e-01
-16.11510000 1.23517000e-01
-16.08510000 1.27463000e-01
-16.05510000 1.29901000e-01
-16.02510000 1.31636000e-01
-15.99510000 1.33023000e-01
-15.96510000 1.34219000e-01
-15.93510000 1.35295000e-01
-15.90510000 1.36284000e-01
-15.87510000 1.37188000e-01
-15.84510000 1.37984000e-01
-15.81510000 1.38597000e-01
-15.78510000 1.38851000e-01
-15.75510000 1.38339000e-01
-15.72510000 1.36619000e-01
-15.69510000 1.36086000e-01
-15.66510000 1.39644000e-01
-15.63510000 1.43109000e-01
-15.60510000 1.45429000e-01
-15.57510000 1.47154000e-01
-15.54510000 1.48612000e-01
-15.51510000 1.49948000e-01
-15.48510000 1.51229000e-01
-15.45510000 1.52490000e-01
-15.42510000 1.53752000e-01
-15.39510000 1.55026000e-01
-15.36510000 1.56325000e-01
-15.31330000 1.58649000e-01
-15.28330000 1.60065000e-01
-15.25330000 1.61550000e-01
-15.22330000 1.63127000e-01
-15.19330000 1.64828000e-01
-15.16330000 1.66708000e-01
-15.13330000 1.68857000e-01
-15.10330000 1.71442000e-01
-15.07330000 1.74790000e-01
-15.04330000 1.79604000e-01
-15.01330000 1.87479000e-01
-14.98330000 2.01498000e-01
-14.95330000 2.19841000e-01
-14.92330000 2.18389000e-01
-14.89330000 2.03849000e-01
-14.86330000 1.95938000e-01
-14.83330000 1.93508000e-01
-14.80330000 1.93927000e-01
-14.77330000 1.96060000e-01
-14.74330000 1.99568000e-01
-14.71330000 2.04545000e-01
-14.68330000 2.11453000e-01
-14.65330000 2.21265000e-01
-14.62330000 2.35889000e-01
-14.59330000 2.59210000e-01
-14.56330000 2.99695000e-01
-14.53330000 3.76690000e-01
-14.50330000 5.27647000e-01
-14.47330000 7.29207000e-01
-14.44330000 6.86502000e-01
-14.41330000 4.83777000e-01
-14.38330000 3.59395000e-01
-14.35330000 2.97998000e-01
-14.32330000 2.66395000e-01
-14.29330000 2.48998000e-01
-14.26330000 2.38937000e-01
-14.23330000 2.32979000e-01
-14.20330000 2.29481000e-01
-14.17330000 2.27547000e-01
-14.14330000 2.26658000e-01
-14.11330000 2.26501000e-01
-14.08330000 2.26875000e-01
-14.05330000 2.27653000e-01
-14.02330000 2.28746000e-01
-13.99330000 2.30097000e-01
-13.96330000 2.31668000e-01
-13.93330000 2.33433000e-01
-13.90330000 2.35379000e-01
-13.87330000 2.37505000e-01
-13.84330000 2.39821000e-01
-13.81330000 2.42357000e-01
-13.78330000 2.45174000e-01
-13.75330000 2.48395000e-01
-13.72330000 2.52269000e-01
-13.69330000 2.57216000e-01
-13.66330000 2.64120000e-01
-13.63330000 2.75098000e-01
-13.60330000 2.87648000e-01
-13.57330000 2.86545000e-01
-13.52160000 2.78021000e-01
-13.49160000 2.78479000e-01
-13.46160000 2.81053000e-01
-13.43160000 2.85089000e-01
-13.40160000 2.90691000e-01
-13.37160000 2.98514000e-01
-13.34160000 3.07446000e-01
-13.31160000 3.11880000e-01
-13.28160000 3.15573000e-01
-13.25160000 3.22676000e-01
-13.22160000 3.33682000e-01
-13.19160000 3.49918000e-01
-13.16160000 3.74574000e-01
-13.13160000 4.15994000e-01
-13.10160000 4.87961000e-01
-13.07160000 5.90662000e-01
-13.04160000 6.50238000e-01
-13.01160000 5.93710000e-01
-12.98160000 5.38704000e-01
-12.95160000 5.26388000e-01
-12.92160000 5.70549000e-01
-12.89160000 6.87796000e-01
-12.86160000 8.68818000e-01
-12.83160000 1.06207000e+00
-12.80160000 1.08626000e+00
-12.77160000 8.30306000e-01
-12.74160000 6.38173000e-01
-12.71160000 5.43797000e-01
-12.68160000 4.98741000e-01
-12.65160000 4.77525000e-01
-12.62160000 4.69012000e-01
-12.59160000 4.68189000e-01
-12.56160000 4.72763000e-01
-12.53160000 4.81825000e-01
-12.50160000 4.95352000e-01
-12.47160000 5.14146000e-01
-12.44160000 5.40126000e-01
-12.41160000 5.77188000e-01
-12.38160000 6.33326000e-01
-12.35160000 7.25920000e-01
-12.32160000 8.94274000e-01
-12.29160000 1.21043000e+00
-12.26160000 1.61820000e+00
-12.23160000 1.61547000e+00
-12.20160000 1.25728000e+00
-12.17160000 1.03643000e+00
-12.14160000 9.85662000e-01
-12.11160000 9.84739000e-01
-12.08160000 9.23149000e-01
-12.05160000 8.83507000e-01
-12.02160000 8.91754000e-01
-11.99160000 9.37648000e-01
-11.96160000 1.02116000e+00
-11.93160000 1.15480000e+00
-11.90160000 1.36675000e+00
-11.87160000 1.73952000e+00
-11.84160000 2.43366000e+00
-11.81160000 3.35079000e+00
-11.78160000 3.33257000e+00
-11.72990000 2.68525000e+00
-11.69990000 2.98172000e+00
-11.66990000 3.87819000e+00
-11.63990000 5.80033000e+00
-11.60990000 9.35128000e+00
-11.57990000 1.23414000e+01
-11.54990000 1.16605000e+01
-11.51990000 9.78304000e+00
-11.48990000 7.06414000e+00
-11.45990000 5.66379000e+00
-11.42990000 5.00782000e+00
-11.39990000 4.35901000e+00
-11.36990000 3.73987000e+00
-11.33990000 3.11156000e+00
-11.30990000 2.83231000e+00
-11.27990000 2.85422000e+00
-11.24990000 3.11092000e+00
-11.21990000 3.55940000e+00
-11.18990000 4.30323000e+00
-11.15990000 5.63332000e+00
-11.12990000 8.07868000e+00
-11.09990000 1.28530000e+01
-11.06990000 2.23222000e+01
-11.03990000 3.50785000e+01
-11.00990000 3.27404000e+01
-10.97990000 1.98001000e+01
-10.94990000 1.16178000e+01
-10.91990000 7.54709000e+00
-10.88990000 5.46183000e+00
-10.85990000 4.35674000e+00
-10.82990000 3.82623000e+00
-10.79990000 3.76278000e+00
-10.76990000 4.22621000e+00
-10.73990000 4.84865000e+00
-10.70990000 4.47818000e+00
-10.67990000 3.63261000e+00
-10.64990000 3.17851000e+00
-10.61990000 3.17961000e+00
-10.58990000 3.61870000e+00
-10.55990000 4.62218000e+00
-10.52990000 5.80063000e+00
-10.49990000 5.82428000e+00
-10.46990000 5.86635000e+00
-10.43990000 5.57231000e+00
-10.40990000 4.70083000e+00
-10.37990000 4.47274000e+00
-10.34990000 4.32094000e+00
-10.31990000 3.93291000e+00
-10.28990000 3.70302000e+00
-10.25990000 3.73032000e+00
-10.22990000 4.00726000e+00
-10.19990000 4.24225000e+00
-10.16990000 4.65900000e+00
-10.13990000 5.55311000e+00
-10.10990000 7.24761000e+00
-10.07990000 1.04526000e+01
-10.04990000 1.55836000e+01
-10.01990000 1.90551000e+01
-9.98987000 2.05183000e+01
-9.93814000 3.41422000e+01
-9.90814000 3.53122000e+01
-9.87814000 2.65519000e+01
-9.84814000 1.68440000e+01
-9.81814000 1.12921000e+01
-9.78814000 8.54820000e+00
-9.75814000 7.19817000e+00
-9.72814000 6.59449000e+00
-9.69814000 6.47310000e+00
-9.66814000 6.75278000e+00
-9.63814000 7.36510000e+00
-9.60814000 8.12810000e+00
-9.57814000 9.34757000e+00
-9.54814000 1.14896000e+01
-9.51814000 1.51129000e+01
-9.48814000 2.14638000e+01
-9.45814000 3.31507000e+01
-9.42814000 4.94242000e+01
-9.39814000 5.94925000e+01
-9.36814000 6.02968000e+01
-9.33814000 5.22624000e+01
-9.30814000 5.50585000e+01
-9.27814000 7.63703000e+01
-9.24814000 9.37630000e+01
-9.21814000 6.89937000e+01
-9.18814000 4.20862000e+01
-9.15814000 2.81820000e+01
-9.12814000 2.11015000e+01
-9.09814000 1.75721000e+01
-9.06814000 1.64195000e+01
-9.03814000 1.67972000e+01
-9.00814000 1.78148000e+01
-8.97814000 2.03888000e+01
-8.94814000 2.57680000e+01
-8.91814000 3.13219000e+01
-8.88814000 3.75821000e+01
-8.85814000 5.35596000e+01
-8.82814000 8.39423000e+01
-8.79814000 1.09819000e+02
-8.76814000 1.03625000e+02
-8.73814000 7.74632000e+01
-8.70814000 5.49869000e+01
-8.67814000 4.40611000e+01
-8.64814000 4.19031000e+01
-8.61814000 3.76348000e+01
-8.58814000 3.24882000e+01
-8.55814000 3.35702000e+01
-8.52814000 4.30291000e+01
-8.49814000 6.30726000e+01
-8.46814000 7.65600000e+01
-8.43814000 6.15994000e+01
-8.40814000 4.55221000e+01
-8.37814000 4.17275000e+01
-8.34814000 4.84443000e+01
-8.31814000 5.67474000e+01
-8.28814000 5.79240000e+01
-8.25814000 6.27333000e+01
-8.22814000 5.81768000e+01
-8.19814000 4.61897000e+01
-8.14640000 4.15169000e+01
-8.11640000 4.74187000e+01
-8.08640000 6.19780000e+01
-8.05640000 8.13501000e+01
-8.02640000 8.81727000e+01
-7.99640000 8.65159000e+01
-7.96640000 9.65311000e+01
-7.93640000 1.14097000e+02
-7.90640000 1.34065000e+02
-7.87640000 1.81067000e+02
-7.84640000 2.79145000e+02
-7.81640000 4.37115000e+02
-7.78640000 5.24906000e+02
-7.75640000 4.36141000e+02
-7.72640000 2.77378000e+02
-7.69640000 1.65295000e+02
-7.66640000 1.08190000e+02
-7.63640000 8.08138000e+01
-7.60640000 6.50213000e+01
-7.57640000 5.18572000e+01
-7.54640000 4.26497000e+01
-7.51640000 3.55630000e+01
-7.48640000 3.01418000e+01
-7.45640000 2.68154000e+01
-7.42640000 2.57370000e+01
-7.39640000 2.67486000e+01
-7.36640000 2.86315000e+01
-7.33640000 3.30517000e+01
-7.30640000 3.92280000e+01
-7.27640000 4.48583000e+01
-7.24640000 5.87707000e+01
-7.21640000 7.67331000e+01
-7.18640000 7.99840000e+01
-7.15640000 7.15714000e+01
-7.12640000 7.03868000e+01
-7.09640000 7.06242000e+01
-7.06640000 7.36766000e+01
-7.03640000 9.15316000e+01
-7.00640000 1.04292000e+02
-6.97640000 8.60872000e+01
-6.94640000 6.01896000e+01
-6.91640000 4.48586000e+01
-6.88640000 3.86450000e+01
-6.85640000 3.86856000e+01
-6.82640000 4.29066000e+01
-6.79640000 5.12445000e+01
-6.76640000 6.19807000e+01
-6.73640000 7.77721000e+01
-6.70640000 9.98768000e+01
-6.67640000 1.14249000e+02
-6.64640000 1.26666000e+02
-6.61640000 1.40592000e+02
-6.58640000 1.64959000e+02
-6.55640000 1.85599000e+02
-6.52640000 1.78399000e+02
-6.49640000 1.58602000e+02
-6.46640000 1.25558000e+02
-6.43640000 9.15285000e+01
-6.40640000 7.02683000e+01
-6.35467000 6.84232000e+01
-6.32467000 8.75796000e+01
-6.29467000 1.24192000e+02
-6.26467000 1.85575000e+02
-6.23467000 2.04278000e+02
-6.20467000 1.36890000e+02
-6.17467000 8.32333000e+01
-6.14467000 5.70164000e+01
-6.11467000 4.51121000e+01
-6.08467000 3.98724000e+01
-6.05467000 4.00670000e+01
-6.02467000 4.72756000e+01
-5.99467000 6.24818000e+01
-5.96467000 8.19831000e+01
-5.93467000 1.14355000e+02
-5.90467000 1.36652000e+02
-5.87467000 1.05544000e+02
-5.84467000 6.68637000e+01
-5.81467000 4.43477000e+01
-5.78467000 3.23743000e+01
-5.75467000 2.44065000e+01
-5.72467000 1.95582000e+01
-5.69467000 1.66611000e+01
-5.66467000 1.50335000e+01
-5.63467000 1.49175000e+01
-5.60467000 1.67054000e+01
-5.57467000 2.11421000e+01
-5.54467000 2.71445000e+01
-5.51467000 3.00129000e+01
-5.48467000 2.72518000e+01
-5.45467000 2.36404000e+01
-5.42467000 2.55780000e+01
-5.39467000 3.35749000e+01
-5.36467000 3.91384000e+01
-5.33467000 3.15647000e+01
-5.30467000 2.55706000e+01
-5.27467000 2.33968000e+01
-5.24467000 2.31108000e+01
-5.21467000 2.51511000e+01
-5.18467000 2.32894000e+01
-5.15467000 2.13947000e+01
-5.12467000 2.39118000e+01
-5.09467000 3.20460000e+01
-5.06467000 4.76129000e+01
-5.03467000 5.33610000e+01
-5.00467000 3.81729000e+01
-4.97467000 2.64248000e+01
-4.94467000 2.16558000e+01
-4.91467000 2.13076000e+01
-4.88467000 2.36612000e+01
-4.85467000 2.45101000e+01
-4.82467000 2.77859000e+01
-4.79467000 3.79288000e+01
-4.76467000 5.14903000e+01
-4.73467000 5.43878000e+01
-4.70467000 5.44601000e+01
-4.67467000 6.09954000e+01
-4.64467000 5.57658000e+01
-4.61467000 3.76305000e+01
-4.56293000 2.03545000e+01
-4.53293000 1.64880000e+01
-4.50293000 1.28743000e+01
-4.47293000 1.04718000e+01
-4.44293000 9.56268000e+00
-4.41293000 1.00589000e+01
-4.38293000 1.24613000e+01
-4.35293000 1.72209000e+01
-4.32293000 1.98894000e+01
-4.29293000 1.68132000e+01
-4.26293000 1.44291000e+01
-4.23293000 1.16926000e+01
-4.20293000 8.98293000e+00
-4.17293000 7.85629000e+00
-4.14293000 8.12321000e+00
-4.11293000 9.85693000e+00
-4.08293000 1.36916000e+01
-4.05293000 1.78891000e+01
-4.02293000 1.62027000e+01
-3.99293000 1.39437000e+01
-3.96293000 1.43359000e+01
-3.93293000 1.32684000e+01
-3.90293000 1.03342000e+01
-3.87293000 9.20498000e+00
-3.84293000 9.32477000e+00
-3.81293000 8.63083000e+00
-3.78293000 7.83287000e+00
-3.75293000 7.97302000e+00
-3.72293000 9.14295000e+00
-3.69293000 1.16931000e+01
-3.66293000 1.68181000e+01
-3.63293000 2.43499000e+01
-3.60293000 2.73882000e+01
-3.57293000 2.96250000e+01
-3.54293000 3.60700000e+01
-3.51293000 3.62256000e+01
-3.48293000 3.23482000e+01
-3.45293000 3.49176000e+01
-3.42293000 4.16199000e+01
-3.39293000 3.75953000e+01
-3.36293000 2.84178000e+01
-3.33293000 2.53124000e+01
-3.30293000 3.05473000e+01
-3.27293000 3.78917000e+01
-3.24293000 3.19007000e+01
-3.21293000 2.33797000e+01
-3.18293000 1.76889000e+01
-3.15293000 1.32810000e+01
-3.12293000 9.98690000e+00
-3.09293000 7.96834000e+00
-3.06293000 7.04142000e+00
-3.03293000 6.47980000e+00
-3.00293000 5.79700000e+00
-2.97293000 4.78489000e+00
-2.94293000 4.14354000e+00
-2.91293000 4.08245000e+00
-2.88293000 4.53888000e+00
-2.85293000 4.83734000e+00
-2.82293000 4.07736000e+00
-2.77120000 3.08625000e+00
-2.74120000 3.08178000e+00
-2.71120000 3.18934000e+00
-2.68120000 3.17806000e+00
-2.65120000 3.32672000e+00
-2.62120000 3.78528000e+00
-2.59120000 4.87947000e+00
-2.56120000 6.86353000e+00
-2.53120000 8.63235000e+00
-2.50120000 7.85595000e+00
-2.47120000 5.94487000e+00
-2.44120000 4.85188000e+00
-2.41120000 3.99451000e+00
-2.38120000 3.20395000e+00
-2.35120000 2.70815000e+00
-2.32120000 2.49795000e+00
-2.29120000 2.50733000e+00
-2.26120000 2.66489000e+00
-2.23120000 2.73975000e+00
-2.20120000 2.84714000e+00
-2.17120000 3.21311000e+00
-2.14120000 3.91248000e+00
-2.11120000 4.76881000e+00
-2.08120000 5.66473000e+00
-2.05120000 6.82033000e+00
-2.02120000 8.98683000e+00
-1.99120000 1.35321000e+01
-1.96120000 1.97617000e+01
-1.93120000 1.91632000e+01
-1.90120000 1.49212000e+01
-1.87120000 1.23507000e+01
-1.84120000 1.14746000e+01
-1.81120000 1.33739000e+01
-1.78120000 1.86733000e+01
-1.75120000 2.22444000e+01
-1.72120000 1.74317000e+01
-1.69120000 1.20923000e+01
-1.66120000 8.70261000e+00
-1.63120000 6.92855000e+00
-1.60120000 6.43678000e+00
-1.57120000 6.83317000e+00
-1.54120000 7.24457000e+00
-1.51120000 6.79681000e+00
-1.48120000 6.30538000e+00
-1.45120000 6.57759000e+00
-1.42120000 7.62126000e+00
-1.39120000 9.64827000e+00
-1.36120000 1.29391000e+01
-1.33120000 1.61133000e+01
-1.30120000 2.09003000e+01
-1.27120000 2.97087000e+01
-1.24120000 3.24176000e+01
-1.21120000 2.66271000e+01
-1.18120000 1.89117000e+01
-1.15120000 1.35210000e+01
-1.12120000 1.14464000e+01
-1.09120000 1.21550000e+01
-1.06120000 1.26955000e+01
-1.03120000 1.09922000e+01
-0.97946500 9.92853000e+00
-0.94946500 9.50667000e+00
-0.91946500 9.85944000e+00
-0.88946500 1.18920000e+01
-0.85946500 1.62056000e+01
-0.82946500 2.52535000e+01
-0.79946500 4.22204000e+01
-0.76946500 5.72365000e+01
-0.73946500 4.57697000e+01
-0.70946500 2.80255000e+01
-0.67946500 1.88867000e+01
-0.64946500 1.48840000e+01
-0.61946500 1.37041000e+01
-0.58946500 1.32485000e+01
-0.55946500 1.07890000e+01
-0.52946500 8.83882000e+00
-0.49946500 7.62767000e+00
-0.46946500 6.63011000e+00
-0.43946500 6.05531000e+00
-0.40946500 5.97330000e+00
-0.37946500 6.43536000e+00
-0.34946500 8.07900000e+00
-0.31946500 1.12595000e+01
-0.28946500 1.29509000e+01
-0.25946500 1.10659000e+01
-0.22946500 1.00697000e+01
-0.19946500 1.18158000e+01
-0.16946500 1.35771000e+01
-0.13946500 1.04263000e+01
-0.10946500 6.83371000e+00
-0.07946480 4.89343000e+00
-0.04946480 3.99327000e+00
-0.01946480 3.30891000e+00
0.01053520 2.80637000e+00
0.04053520 2.61181000e+00
0.07053520 2.67091000e+00
0.10053500 2.84317000e+00
0.13053500 2.80353000e+00
0.16053500 2.73558000e+00
0.19053500 2.92921000e+00
0.22053500 3.06914000e+00
0.25053500 3.00265000e+00
0.28053500 2.86454000e+00
0.31053500 2.99188000e+00
0.34053500 3.37570000e+00
0.37053500 3.87447000e+00
0.40053500 4.40055000e+00
0.43053500 4.85731000e+00
0.46053500 5.83069000e+00
0.49053500 8.22340000e+00
0.52053500 1.29893000e+01
0.55053500 1.69266000e+01
0.58053500 1.42458000e+01
0.61053500 1.11726000e+01
0.64053500 8.46825000e+00
0.67053500 6.57099000e+00
0.70053500 5.74504000e+00
0.73053500 4.80327000e+00
0.76053500 4.09658000e+00
