# E(MeV)  S_NSDRNSDR(Total=K0+2*K1) for Lu184_DDPCX
-8.58324000 -2.30965100e+00
-8.55324000 -2.09982800e+00
-8.52324000 -1.94040600e+00
-8.49324000 -1.81649700e+00
-8.46324000 -1.70809000e+00
-8.43324000 -1.61858500e+00
-8.40324000 -1.55893600e+00
-8.37324000 -1.52773800e+00
-8.34324000 -1.47493700e+00
-8.31324000 -1.38504300e+00
-8.28324000 -1.31251000e+00
-8.25324000 -1.26015000e+00
-8.22324000 -1.22039300e+00
-8.19324000 -1.18938500e+00
-8.16324000 -1.16463100e+00
-8.13324000 -1.14448800e+00
-8.10324000 -1.13009700e+00
-8.07324000 -1.12204200e+00
-8.04324000 -1.12077700e+00
-8.01324000 -1.12727900e+00
-7.98324000 -1.14319800e+00
-7.95324000 -1.17114400e+00
-7.92324000 -1.21525300e+00
-7.89324000 -1.28227800e+00
-7.86324000 -1.38383800e+00
-7.83324000 -1.54130300e+00
-7.80324000 -1.79725400e+00
-7.77324000 -2.24205400e+00
-7.74324000 -3.04802600e+00
-7.71324000 -4.30959000e+00
-7.68324000 -5.46538000e+00
-7.64369000 -5.13869100e+00
-7.61369000 -5.36114300e+00
-7.58369000 -7.20423400e+00
-7.55369000 -1.15608690e+01
-7.52369000 -1.70844680e+01
-7.49369000 -1.49474870e+01
-7.46369000 -9.12694300e+00
-7.43369000 -5.80351800e+00
-7.40369000 -4.35441000e+00
-7.37369000 -4.00300000e+00
-7.34369000 -4.63890400e+00
-7.31369000 -6.31044400e+00
-7.28369000 -6.84978800e+00
-7.25369000 -4.89260800e+00
-7.22369000 -3.39348200e+00
-7.19369000 -2.51721400e+00
-7.16369000 -1.86246600e+00
-7.13369000 -1.46083100e+00
-7.10369000 -1.22444000e+00
-7.07369000 -1.08207200e+00
-7.04369000 -9.98137000e-01
-7.01369000 -9.25467000e-01
-6.98369000 -8.41887000e-01
-6.95369000 -7.77507000e-01
-6.92369000 -7.31985000e-01
-6.89369000 -6.98344000e-01
-6.86369000 -6.72582000e-01
-6.83369000 -6.52543000e-01
-6.80369000 -6.36968000e-01
-6.77369000 -6.25073000e-01
-6.74369000 -6.16347000e-01
-6.70414000 -6.09141000e-01
-6.67414000 -6.06692000e-01
-6.64414000 -6.06742000e-01
-6.61414000 -6.09286000e-01
-6.58414000 -6.14378000e-01
-6.55414000 -6.22151000e-01
-6.52414000 -6.32803000e-01
-6.49414000 -6.46616000e-01
-6.46414000 -6.63961000e-01
-6.43414000 -6.85330000e-01
-6.40414000 -7.11352000e-01
-6.37414000 -7.42838000e-01
-6.34414000 -7.80834000e-01
-6.31414000 -8.26700000e-01
-6.28414000 -8.82200000e-01
-6.25414000 -9.49654000e-01
-6.22414000 -1.03210500e+00
-6.19414000 -1.13350000e+00
-6.16414000 -1.25876500e+00
-6.13414000 -1.41384880e+00
-6.10414000 -1.61131760e+00
-6.07414000 -1.90029690e+00
-6.04414000 -2.32779810e+00
-6.01414000 -2.92058500e+00
-5.98414000 -3.78342900e+00
-5.95414000 -5.12546100e+00
-5.92414000 -7.36781500e+00
-5.89414000 -1.14364050e+01
-5.86414000 -1.94366680e+01
-5.83414000 -3.48471240e+01
-5.80414000 -5.05615510e+01
-5.76459000 -3.36322470e+01
-5.73459000 -1.81207120e+01
-5.70459000 -9.52675300e+00
-5.67459000 -3.94447900e+00
-5.64459000 3.68778000e-01
-5.61459000 1.08757800e+00
-5.58459000 -3.39466200e-01
-5.55459000 -1.19284100e+00
-5.52459000 -1.55790800e+00
-5.49459000 -1.73571100e+00
-5.46459000 -1.86405300e+00
-5.43459000 -2.00455900e+00
-5.40459000 -2.19331100e+00
-5.37459000 -2.46337300e+00
-5.34459000 -2.85912900e+00
-5.31459000 -3.45346200e+00
-5.28459000 -4.37978400e+00
-5.25459000 -5.90360900e+00
-5.22459000 -8.59801700e+00
-5.19459000 -1.37693110e+01
-5.16459000 -2.39937220e+01
-5.13459000 -3.81806700e+01
-5.10459000 -3.61695230e+01
-5.07459000 -2.20382380e+01
-5.04459000 -1.32148100e+01
-5.01459000 -8.95767000e+00
-4.98459000 -6.92242000e+00
-4.95459000 -6.02664000e+00
-4.92459000 -5.84241000e+00
-4.89459000 -6.22398000e+00
-4.86459000 -7.22012000e+00
-4.82504000 -9.94860000e+00
-4.79504000 -1.40021600e+01
-4.76504000 -2.16739600e+01
-4.73504000 -3.70297600e+01
-4.70504000 -6.51337000e+01
-4.67504000 -8.62559000e+01
-4.64504000 -6.38509800e+01
-4.61504000 -3.59014800e+01
-4.58504000 -2.07735600e+01
-4.55504000 -1.30992400e+01
-4.52504000 -8.90034000e+00
-4.49504000 -6.40229200e+00
-4.46504000 -4.80726000e+00
-4.43504000 -3.72872000e+00
-4.40504000 -2.96453000e+00
-4.37504000 -2.40162600e+00
-4.34504000 -1.97304000e+00
-4.31504000 -1.63714600e+00
-4.28504000 -1.36691700e+00
-4.25504000 -1.14418500e+00
-4.22504000 -9.56271000e-01
-4.19504000 -7.94034800e-01
-4.16504000 -6.50633800e-01
-4.13504000 -5.20745600e-01
-4.10504000 -4.00010120e-01
-4.07504000 -2.84639600e-01
-4.04504000 -1.71084000e-01
-4.01504000 -5.57176000e-02
-3.98504000 6.55140000e-02
-3.95504000 1.97582000e-01
-3.92504000 3.47146300e-01
-3.88549000 5.88189200e-01
-3.85549000 8.26142000e-01
-3.82549000 1.14694900e+00
-3.79549000 1.61536000e+00
-3.76549000 2.33599800e+00
-3.73549000 3.22239000e+00
-3.70549000 3.89286000e+00
-3.67549000 4.98275700e+00
-3.64549000 7.28534400e+00
-3.61549000 1.19303260e+01
-3.58549000 2.10015200e+01
-3.55549000 3.18743100e+01
-3.52549000 2.90327500e+01
-3.49549000 2.17761100e+01
-3.46549000 1.86539800e+01
-3.43549000 1.34868300e+01
-3.40549000 9.09473000e+00
-3.37549000 7.18688000e+00
-3.34549000 7.10599000e+00
-3.31549000 8.90137100e+00
-3.28549000 1.36477640e+01
-3.25549000 2.10443160e+01
-3.22549000 2.05150400e+01
-3.19549000 1.25726460e+01
-3.16549000 7.33891600e+00
-3.13549000 4.73849400e+00
-3.10549000 3.46483200e+00
-3.07549000 2.80750800e+00
-3.04549000 2.19522400e+00
-3.01549000 1.66100400e+00
-2.98549000 1.31198850e+00
-2.94593000 1.02696980e+00
-2.91593000 8.84529100e-01
-2.88593000 7.80320200e-01
-2.85593000 7.02344400e-01
-2.82593000 6.43424800e-01
-2.79593000 5.99065400e-01
-2.76593000 5.66424500e-01
-2.73593000 5.43840900e-01
-2.70593000 5.30713400e-01
-2.67593000 5.27847200e-01
-2.64593000 5.38417000e-01
-2.61593000 5.66983100e-01
-2.58593000 5.97427000e-01
-2.55593000 6.06536600e-01
-2.52593000 6.35476900e-01
-2.49593000 7.11162900e-01
-2.46593000 8.66334700e-01
-2.43593000 1.16049830e+00
-2.40593000 1.47767920e+00
-2.37593000 1.35892040e+00
-2.34593000 1.14015810e+00
-2.31593000 1.11117420e+00
-2.28593000 1.22382030e+00
-2.25593000 1.25667340e+00
-2.22593000 1.19467690e+00
-2.19593000 1.21499770e+00
-2.16593000 1.32472070e+00
-2.13593000 1.51530400e+00
-2.10593000 1.80206400e+00
-2.07593000 2.22754700e+00
-2.04593000 2.87766700e+00
-2.00638000 4.39514800e+00
-1.97638000 6.60116000e+00
-1.94638000 1.07933850e+01
-1.91638000 1.83115600e+01
-1.88638000 2.69731770e+01
-1.85638000 2.45106790e+01
-1.82638000 1.63091500e+01
-1.79638000 1.28114200e+01
-1.76638000 1.30876200e+01
-1.73638000 1.46096900e+01
-1.70638000 1.42128600e+01
-1.67638000 9.81234000e+00
-1.64638000 6.30414800e+00
-1.61638000 4.52863600e+00
-1.58638000 3.72051900e+00
-1.55638000 3.47874000e+00
-1.52638000 3.70875000e+00
-1.49638000 4.55797000e+00
-1.46638000 6.50973000e+00
-1.43638000 1.01144600e+01
-1.40638000 1.25234700e+01
-1.37638000 1.09363300e+01
-1.34638000 1.11253400e+01
-1.31638000 1.43632000e+01
-1.28638000 1.44496000e+01
-1.25638000 9.46786100e+00
-1.22638000 5.68792500e+00
-1.19638000 3.72489800e+00
-1.16638000 2.68794600e+00
-1.13638000 2.09358100e+00
-1.10638000 1.72245700e+00
-1.06683000 1.42600900e+00
-1.03683000 1.28724000e+00
-1.00683000 1.19488100e+00
-0.97683200 1.13427500e+00
-0.94683200 1.09914400e+00
-0.91683200 1.09114900e+00
-0.88683200 1.10599700e+00
-0.85683200 1.15004100e+00
-0.82683200 1.24662000e+00
-0.79683200 1.43895300e+00
-0.76683200 1.79661100e+00
-0.73683200 2.17068500e+00
-0.70683200 2.06275300e+00
-0.67683200 1.88403200e+00
-0.64683200 1.90093200e+00
-0.61683200 2.10891000e+00
-0.58683200 2.61686000e+00
-0.55683200 3.52416600e+00
-0.52683200 4.07378600e+00
-0.49683200 3.56631600e+00
-0.46683200 3.21040000e+00
-0.43683200 3.27569300e+00
-0.40683200 3.60948800e+00
-0.37683200 4.08348300e+00
-0.34683200 4.82429100e+00
-0.31683200 5.99643500e+00
-0.28683200 7.83223600e+00
-0.25683200 1.08119460e+01
-0.22683200 1.59061300e+01
-0.19683200 2.48210910e+01
-0.16683200 4.11707000e+01
-0.12728100 8.26255000e+01
-0.09728120 9.35791700e+01
-0.06728120 6.31024400e+01
-0.03728120 3.64084800e+01
-0.00728121 2.28511300e+01
0.02271880 1.68627800e+01
0.05271880 1.53695000e+01
0.08271880 1.61348300e+01
0.11271900 1.44448700e+01
0.14271900 1.05433300e+01
0.17271900 7.61637000e+00
0.20271900 5.65702000e+00
0.23271900 4.55767000e+00
0.26271900 4.13815000e+00
0.29271900 4.37370900e+00
0.32271900 5.19245300e+00
0.35271900 5.22209500e+00
0.38271900 4.12700800e+00
0.41271900 3.02484800e+00
0.44271900 2.34778500e+00
0.47271900 1.98750800e+00
0.50271900 1.80339800e+00
0.53271900 1.73622000e+00
0.56271900 1.77954900e+00
0.59271900 1.97474300e+00
0.62271900 2.41031500e+00
0.65271900 3.02380600e+00
0.68271900 3.68377600e+00
0.71271900 4.76127400e+00
0.74271900 4.91376400e+00
0.77271900 4.21423000e+00
