# E(MeV)  S_GAMTGAMT(K=1) for Nb98_DDPCX
-5.17504000 -1.53284000e-01
-5.14504000 -8.93324000e-02
-5.11504000 -5.00908000e-02
-5.08504000 -3.04120000e-02
-5.05504000 -1.99771000e-02
-5.02504000 -1.39525000e-02
-4.99504000 -1.02059000e-02
-4.96504000 -7.73265000e-03
-4.93504000 -6.02095000e-03
-4.90504000 -4.79106000e-03
-4.87504000 -3.88065000e-03
-4.84504000 -3.19072000e-03
-4.81504000 -2.65826000e-03
-4.78504000 -2.24177000e-03
-4.75504000 -1.91307000e-03
-4.72504000 -1.65257000e-03
-4.69504000 -1.44641000e-03
-4.66504000 -1.28463000e-03
-4.63504000 -1.16004000e-03
-4.57631000 -1.00540000e-03
-4.54631000 -9.66018000e-04
-4.51631000 -9.51154000e-04
-4.48631000 -9.60263000e-04
-4.45631000 -9.93716000e-04
-4.42631000 -1.05290000e-03
-4.39631000 -1.14048000e-03
-4.36631000 -1.26079000e-03
-4.33631000 -1.42076000e-03
-4.30631000 -1.63143000e-03
-4.27631000 -1.91104000e-03
-4.24631000 -2.29147000e-03
-4.21631000 -2.83257000e-03
-4.18631000 -3.65571000e-03
-4.15631000 -5.00822000e-03
-4.12631000 -7.19347000e-03
-4.09631000 -1.00357000e-02
-4.06631000 -1.44351000e-02
-4.03631000 -1.81460000e-02
-3.97757000 -1.06972000e-02
-3.94757000 -8.90015000e-03
-3.91757000 -8.57299000e-03
-3.88757000 -9.11644000e-03
-3.85757000 -1.03730000e-02
-3.82757000 -1.24935000e-02
-3.79757000 -1.60191000e-02
-3.76757000 -2.19355000e-02
-3.73757000 -2.87916000e-02
-3.70757000 -2.96805000e-02
-3.67757000 -2.94427000e-02
-3.64757000 -3.28419000e-02
-3.61757000 -3.99918000e-02
-3.58757000 -5.16220000e-02
-3.55757000 -7.00438000e-02
-3.52757000 -1.00293000e-01
-3.49757000 -1.53322000e-01
-3.46757000 -2.54109000e-01
-3.43757000 -4.55669000e-01
-3.37884000 -8.49352000e-01
-3.34884000 -5.35432000e-01
-3.31884000 -2.95162000e-01
-3.28884000 -1.73424000e-01
-3.25884000 -1.10506000e-01
-3.22884000 -7.51442000e-02
-3.19884000 -5.36421000e-02
-3.16884000 -3.96947000e-02
-3.13884000 -3.01643000e-02
-3.10884000 -2.33708000e-02
-3.07884000 -1.83559000e-02
-3.04884000 -1.45437000e-02
-3.01884000 -1.15718000e-02
-2.98884000 -9.20366000e-03
-2.95884000 -7.27953000e-03
-2.92884000 -5.68848000e-03
-2.89884000 -4.35151000e-03
-2.86884000 -3.21109000e-03
-2.83884000 -2.22442000e-03
-2.78011000 -6.20788000e-04
-2.75011000 7.47832000e-05
-2.72011000 7.09235000e-04
-2.69011000 1.29589000e-03
-2.66011000 1.84620000e-03
-2.63011000 2.37054000e-03
-2.60011000 2.87910000e-03
-2.57011000 3.38302000e-03
-2.54011000 3.89644000e-03
-2.51011000 4.44044000e-03
-2.48011000 5.05216000e-03
-2.45011000 5.80684000e-03
-2.42011000 6.87000000e-03
-2.39011000 8.53387000e-03
-2.36011000 1.04126000e-02
-2.33011000 1.02693000e-02
-2.30011000 9.32045000e-03
-2.27011000 9.04009000e-03
-2.24011000 9.24165000e-03
-2.18138000 1.03443000e-02
-2.15138000 1.11784000e-02
-2.12138000 1.22304000e-02
-2.09138000 1.36058000e-02
-2.06138000 1.55278000e-02
-2.03138000 1.81827000e-02
-2.00138000 2.03551000e-02
-1.97138000 2.13615000e-02
-1.94138000 2.31755000e-02
-1.91138000 2.62910000e-02
-1.88138000 3.08910000e-02
-1.85138000 3.75559000e-02
-1.82138000 4.75091000e-02
-1.79138000 6.32125000e-02
-1.76138000 8.97808000e-02
-1.73138000 1.36956000e-01
-1.70138000 2.15927000e-01
-1.67138000 3.52627000e-01
-1.64138000 5.32089000e-01
-1.58265000 2.89019000e-01
-1.55265000 1.68696000e-01
-1.52265000 1.08743000e-01
-1.49265000 7.74181000e-02
-1.46265000 5.97844000e-02
-1.43265000 4.92572000e-02
-1.40265000 4.27414000e-02
-1.37265000 3.86685000e-02
-1.34265000 3.61902000e-02
-1.31265000 3.48243000e-02
-1.28265000 3.42880000e-02
-1.25265000 3.44148000e-02
-1.22265000 3.51108000e-02
-1.19265000 3.63310000e-02
-1.16265000 3.80672000e-02
-1.13265000 4.03423000e-02
-1.10265000 4.32090000e-02
-1.07265000 4.67527000e-02
-1.04265000 5.10975000e-02
-0.98392200 6.26524000e-02
-0.95392200 7.06763000e-02
-0.92392200 8.07161000e-02
-0.89392200 9.34561000e-02
-0.86392200 1.09908000e-01
-0.83392200 1.31613000e-01
-0.80392200 1.61007000e-01
-0.77392200 2.02107000e-01
-0.74392200 2.61881000e-01
-0.71392200 3.53176000e-01
-0.68392200 5.01435000e-01
-0.65392200 7.61131000e-01
-0.62392200 1.25623000e+00
-0.59392200 2.24336000e+00
-0.56392200 3.75027000e+00
-0.53392200 3.83611000e+00
-0.50392200 2.33860000e+00
-0.47392200 1.30878000e+00
-0.44392200 7.92149000e-01
-0.38519100 3.77895000e-01
-0.35519100 2.85093000e-01
-0.32519100 2.26520000e-01
-0.29519100 1.88675000e-01
-0.26519100 1.64592000e-01
-0.23519100 1.50767000e-01
-0.20519100 1.45900000e-01
-0.17519100 1.50655000e-01
-0.14519100 1.68363000e-01
-0.11519100 2.07442000e-01
-0.08519110 2.87810000e-01
-0.05519110 4.54060000e-01
-0.02519110 7.52435000e-01
0.00480885 9.25155000e-01
0.03480890 7.10024000e-01
0.06480890 4.89986000e-01
0.09480890 3.15654000e-01
0.12480900 2.10896000e-01
0.15480900 1.57137000e-01
0.21353900 1.22280000e-01
0.24353900 1.29150000e-01
0.27353900 1.59416000e-01
0.30353900 2.31693000e-01
0.33353900 3.39978000e-01
0.36353900 3.27027000e-01
0.39353900 2.11762000e-01
0.42353900 1.37958000e-01
0.45353900 1.02316000e-01
0.48353900 8.61992000e-02
0.51353900 8.16112000e-02
0.54353900 8.72087000e-02
0.57353900 1.06623000e-01
0.60353900 1.41334000e-01
0.63353900 1.63893000e-01
0.66353900 1.86498000e-01
0.69353900 2.42266000e-01
0.72353900 2.52264000e-01
0.75353900 2.27491000e-01
