# E(MeV)  S_NSDRNSDR(K=1) for Nb98_DDPCX
-5.17504000 -3.77684000e-01
-5.14504000 -3.08637000e-01
-5.11504000 -2.60630000e-01
-5.08504000 -2.25829000e-01
-5.05504000 -1.99720000e-01
-5.02504000 -1.79562000e-01
-4.99504000 -1.63617000e-01
-4.96504000 -1.50744000e-01
-4.93504000 -1.40168000e-01
-4.90504000 -1.31350000e-01
-4.87504000 -1.23906000e-01
-4.84504000 -1.17556000e-01
-4.81504000 -1.12096000e-01
-4.78504000 -1.07373000e-01
-4.75504000 -1.03274000e-01
-4.72504000 -9.97176000e-02
-4.69504000 -9.66478000e-02
-4.66504000 -9.40348000e-02
-4.63504000 -9.18791000e-02
-4.57631000 -8.92314000e-02
-4.54631000 -8.90960000e-02
-4.51631000 -9.05711000e-02
-4.48631000 -9.51057000e-02
-4.45631000 -1.02919000e-01
-4.42631000 -1.03189000e-01
-4.39631000 -9.48476000e-02
-4.36631000 -8.95879000e-02
-4.33631000 -8.78319000e-02
-4.30631000 -8.82514000e-02
-4.27631000 -9.03571000e-02
-4.24631000 -9.42148000e-02
-4.21631000 -1.00299000e-01
-4.18631000 -1.09575000e-01
-4.15631000 -1.23835000e-01
-4.12631000 -1.46477000e-01
-4.09631000 -1.84384000e-01
-4.06631000 -2.52558000e-01
-4.03631000 -3.85224000e-01
-3.97757000 -9.61396000e-01
-3.94757000 -8.71686000e-01
-3.91757000 -5.36395000e-01
-3.88757000 -3.35354000e-01
-3.85757000 -2.38074000e-01
-3.82757000 -1.91173000e-01
-3.79757000 -1.70606000e-01
-3.76757000 -1.67252000e-01
-3.73757000 -1.79570000e-01
-3.70757000 -2.12260000e-01
-3.67757000 -2.79737000e-01
-3.64757000 -4.17351000e-01
-3.61757000 -6.97669000e-01
-3.58757000 -1.10728000e+00
-3.55757000 -1.07984000e+00
-3.52757000 -6.62158000e-01
-3.49757000 -3.88405000e-01
-3.46757000 -2.50400000e-01
-3.43757000 -1.77398000e-01
-3.37884000 -1.09776000e-01
-3.34884000 -9.19139000e-02
-3.31884000 -7.93854000e-02
-3.28884000 -7.02094000e-02
-3.25884000 -6.32435000e-02
-3.22884000 -5.77934000e-02
-3.19884000 -5.34185000e-02
-3.16884000 -4.98280000e-02
-3.13884000 -4.68243000e-02
-3.10884000 -4.42688000e-02
-3.07884000 -4.20620000e-02
-3.04884000 -4.01311000e-02
-3.01884000 -3.84216000e-02
-2.98884000 -3.68922000e-02
-2.95884000 -3.55107000e-02
-2.92884000 -3.42520000e-02
-2.89884000 -3.30963000e-02
-2.86884000 -3.20273000e-02
-2.83884000 -3.10321000e-02
-2.78011000 -2.92570000e-02
-2.75011000 -2.84222000e-02
-2.72011000 -2.76269000e-02
-2.69011000 -2.68647000e-02
-2.66011000 -2.61302000e-02
-2.63011000 -2.54179000e-02
-2.60011000 -2.47224000e-02
-2.57011000 -2.40379000e-02
-2.54011000 -2.33578000e-02
-2.51011000 -2.26740000e-02
-2.48011000 -2.19758000e-02
-2.45011000 -2.12483000e-02
-2.42011000 -2.04688000e-02
-2.39011000 -1.96015000e-02
-2.36011000 -1.85845000e-02
-2.33011000 -1.73047000e-02
-2.30011000 -1.55368000e-02
-2.27011000 -1.27952000e-02
-2.24011000 -7.97424000e-03
-2.18138000 1.28309000e-02
-2.15138000 1.19366000e-02
-2.12138000 6.14613000e-04
-2.09138000 -6.40149000e-03
-2.06138000 -9.60395000e-03
-2.03138000 -1.09598000e-02
-2.00138000 -1.13915000e-02
-1.97138000 -1.12763000e-02
-1.94138000 -1.07395000e-02
-1.91138000 -9.74541000e-03
-1.88138000 -8.06493000e-03
-1.85138000 -5.09235000e-03
-1.82138000 4.74579000e-04
-1.79138000 8.89125000e-03
-1.76138000 1.03508000e-02
-1.73138000 3.48542000e-03
-1.70138000 -9.20327000e-04
-1.67138000 -2.45110000e-03
-1.64138000 -2.42453000e-03
-1.58265000 2.71970000e-04
-1.55265000 2.93478000e-03
-1.52265000 6.81049000e-03
-1.49265000 1.25397000e-02
-1.46265000 2.13688000e-02
-1.43265000 3.58330000e-02
-1.40265000 6.14582000e-02
-1.37265000 1.10871000e-01
-1.34265000 2.08281000e-01
-1.31265000 3.36327000e-01
-1.28265000 3.04203000e-01
-1.25265000 1.73407000e-01
-1.22265000 9.36526000e-02
-1.19265000 5.38714000e-02
-1.16265000 3.29540000e-02
-1.13265000 2.10329000e-02
-1.10265000 1.37558000e-02
-1.07265000 9.07210000e-03
-1.04265000 5.93809000e-03
-0.98392200 2.33405000e-03
-0.95392200 1.26529000e-03
-0.92392200 5.25927000e-04
-0.89392200 3.33564000e-05
-0.86392200 -2.66286000e-04
-0.83392200 -4.07645000e-04
-0.80392200 -4.11537000e-04
-0.77392200 -2.87754000e-04
-0.74392200 -3.59932000e-05
-0.71392200 3.54953000e-04
-0.68392200 9.10113000e-04
-0.65392200 1.67450000e-03
-0.62392200 2.72505000e-03
-0.59392200 4.19390000e-03
-0.56392200 6.31571000e-03
-0.53392200 9.52979000e-03
-0.50392200 1.47164000e-02
-0.47392200 2.37793000e-02
-0.44392200 4.10629000e-02
-0.38519100 1.21498000e-01
-0.35519100 1.19037000e-01
-0.32519100 7.11037000e-02
-0.29519100 3.98224000e-02
-0.26519100 2.43071000e-02
-0.23519100 1.63463000e-02
-0.20519100 1.19750000e-02
-0.17519100 9.45352000e-03
-0.14519100 7.97226000e-03
-0.11519100 7.12606000e-03
-0.08519110 6.69976000e-03
-0.05519110 6.57519000e-03
-0.02519110 6.68832000e-03
0.00480885 7.00889000e-03
0.03480890 7.53134000e-03
0.06480890 8.27254000e-03
0.09480890 9.27519000e-03
0.12480900 1.06185000e-02
0.15480900 1.24410000e-02
0.21353900 1.85307000e-02
0.24353900 2.42507000e-02
0.27353900 3.39432000e-02
0.30353900 5.18588000e-02
0.33353900 8.44107000e-02
0.36353900 1.15943000e-01
0.39353900 1.07324000e-01
0.42353900 1.04212000e-01
0.45353900 1.37484000e-01
0.48353900 1.80773000e-01
0.51353900 1.46459000e-01
0.54353900 9.04196000e-02
0.57353900 5.99170000e-02
0.60353900 4.59240000e-02
0.63353900 4.05483000e-02
0.66353900 4.10384000e-02
0.69353900 4.80588000e-02
0.72353900 6.55624000e-02
0.75353900 9.23840000e-02
