# E(MeV)  S_NSDRNSDR(Total=K0+2*K1) for Nb98_DDPCX
-5.17504000 -9.45772000e-01
-5.14504000 -8.00558000e-01
-5.11504000 -6.97929000e-01
-5.08504000 -6.22173000e-01
-5.05504000 -5.64219000e-01
-5.02504000 -5.18551000e-01
-4.99504000 -4.81661000e-01
-4.96504000 -4.51242000e-01
-4.93504000 -4.25719000e-01
-4.90504000 -4.03995000e-01
-4.87504000 -3.85285000e-01
-4.84504000 -3.69016000e-01
-4.81504000 -3.54768000e-01
-4.78504000 -3.42229000e-01
-4.75504000 -3.31168000e-01
-4.72504000 -3.21423200e-01
-4.69504000 -3.12889600e-01
-4.66504000 -3.05523600e-01
-4.63504000 -2.99358200e-01
-4.57631000 -2.91513800e-01
-4.54631000 -2.90775000e-01
-4.51631000 -2.94259200e-01
-4.48631000 -3.05681400e-01
-4.45631000 -3.27340000e-01
-4.42631000 -3.41218000e-01
-4.39631000 -3.43225200e-01
-4.36631000 -3.28319800e-01
-4.33631000 -3.04556800e-01
-4.30631000 -2.92907800e-01
-4.27631000 -2.91101200e-01
-4.24631000 -2.96052600e-01
-4.21631000 -3.07225000e-01
-4.18631000 -3.25932000e-01
-4.15631000 -3.55519000e-01
-4.12631000 -4.02721000e-01
-4.09631000 -4.81344000e-01
-4.06631000 -6.21511000e-01
-4.03631000 -8.91870000e-01
-3.97757000 -2.05876100e+00
-3.94757000 -1.89014300e+00
-3.91757000 -1.23367200e+00
-3.88757000 -8.50262000e-01
-3.85757000 -6.80856000e-01
-3.82757000 -6.21740000e-01
-3.79757000 -6.29888000e-01
-3.76757000 -6.95912000e-01
-3.73757000 -8.33201000e-01
-3.70757000 -1.08410100e+00
-3.67757000 -1.54869700e+00
-3.64757000 -2.46027200e+00
-3.61757000 -4.28398800e+00
-3.58757000 -6.84894000e+00
-3.55757000 -6.51291000e+00
-3.52757000 -3.90385600e+00
-3.49757000 -2.23917000e+00
-3.46757000 -1.40334800e+00
-3.43757000 -9.62048000e-01
-3.37884000 -5.55672000e-01
-3.34884000 -4.49561800e-01
-3.31884000 -3.75875800e-01
-3.28884000 -3.22528800e-01
-3.25884000 -2.82553000e-01
-3.22884000 -2.51713800e-01
-3.19884000 -2.27326000e-01
-3.16884000 -2.07623000e-01
-3.13884000 -1.91402500e-01
-3.10884000 -1.77826600e-01
-3.07884000 -1.66294400e-01
-3.04884000 -1.56367100e-01
-3.01884000 -1.47717200e-01
-2.98884000 -1.40096900e-01
-2.95884000 -1.33314400e-01
-2.92884000 -1.27220000e-01
-2.89884000 -1.21694800e-01
-2.86884000 -1.16642300e-01
-2.83884000 -1.11984200e-01
-2.78011000 -1.03763300e-01
-2.75011000 -9.99200000e-02
-2.72011000 -9.62573000e-02
-2.69011000 -9.27329000e-02
-2.66011000 -8.93059000e-02
-2.63011000 -8.59330000e-02
-2.60011000 -8.25665000e-02
-2.57011000 -7.91501000e-02
-2.54011000 -7.56130000e-02
-2.51011000 -7.18609000e-02
-2.48011000 -6.77618000e-02
-2.45011000 -6.31206000e-02
-2.42011000 -5.76345000e-02
-2.39011000 -5.08089000e-02
-2.36011000 -4.17865100e-02
-2.33011000 -2.89840500e-02
-2.30011000 -9.24890000e-03
-2.27011000 2.42123000e-02
-2.24011000 8.68835200e-02
-2.18138000 3.77478800e-01
-2.15138000 3.73284200e-01
-2.12138000 2.01529226e-01
-2.09138000 8.85520200e-02
-2.06138000 3.28038000e-02
-2.03138000 4.54450000e-03
-2.00138000 -1.06273000e-02
-1.97138000 -1.89797300e-02
-1.94138000 -2.33334100e-02
-1.91138000 -2.49121100e-02
-1.88138000 -2.39586800e-02
-1.85138000 -1.96648600e-02
-1.82138000 -9.67024200e-03
-1.79138000 6.38200000e-03
-1.76138000 8.77700000e-03
-1.73138000 -5.28876000e-03
-1.70138000 -1.42931540e-02
-1.67138000 -1.74387000e-02
-1.64138000 -1.73839600e-02
-1.58265000 -1.17976600e-02
-1.55265000 -6.29204000e-03
-1.52265000 1.69328000e-03
-1.49265000 1.34506000e-02
-1.46265000 3.15054000e-02
-1.43265000 6.10092000e-02
-1.40265000 1.13185530e-01
-1.37265000 2.13285150e-01
-1.34265000 4.08390700e-01
-1.31265000 6.63755610e-01
-1.28265000 5.99116630e-01
-1.25265000 3.37478840e-01
-1.22265000 1.78092900e-01
-1.19265000 9.87352700e-02
-1.16265000 5.71488700e-02
-1.13265000 3.35807500e-02
-1.10265000 1.93172300e-02
-1.07265000 1.02521600e-02
-1.04265000 4.29531000e-03
-0.98392200 -2.28370000e-03
-0.95392200 -4.09121000e-03
-0.92392200 -5.23450600e-03
-0.89392200 -5.87883720e-03
-0.86392200 -6.13182200e-03
-0.83392200 -6.06251000e-03
-0.80392200 -5.71216400e-03
-0.77392200 -5.09988800e-03
-0.74392200 -4.22449640e-03
-0.71392200 -3.06287400e-03
-0.68392200 -1.56413400e-03
-0.65392200 3.62700000e-04
-0.62392200 2.87262000e-03
-0.59392200 6.23118000e-03
-0.56392200 1.09091900e-02
-0.53392200 1.77869800e-02
-0.50392200 2.86270820e-02
-0.47392200 4.72393340e-02
-0.44392200 8.23152900e-02
-0.38519100 2.44258860e-01
-0.35519100 2.39932790e-01
-0.32519100 1.44701190e-01
-0.29519100 8.28192200e-02
-0.26519100 5.25228800e-02
-0.23519100 3.73990500e-02
-0.20519100 2.95300700e-02
-0.17519100 2.54521200e-02
-0.14519100 2.35659100e-02
-0.11519100 2.30869200e-02
-0.08519110 2.36189200e-02
-0.05519110 2.49712800e-02
-0.02519110 2.70788400e-02
0.00480885 2.99692800e-02
0.03480890 3.37588800e-02
0.06480890 3.86711800e-02
0.09480890 4.50847800e-02
0.12480900 5.36312000e-02
0.15480900 6.53913000e-02
0.21353900 1.06765500e-01
0.24353900 1.48266700e-01
0.27353900 2.22528400e-01
0.30353900 3.63436600e-01
0.33353900 5.84456400e-01
0.36353900 7.13772000e-01
0.39353900 7.00252000e-01
0.42353900 6.05052000e-01
0.45353900 5.22384000e-01
0.48353900 5.21193000e-01
0.51353900 4.10449000e-01
0.54353900 2.79268600e-01
0.57353900 2.12034900e-01
0.60353900 1.87100700e-01
0.63353900 1.88787600e-01
0.66353900 2.15378800e-01
0.69353900 2.78013600e-01
0.72353900 3.99037800e-01
0.75353900 5.45562000e-01
