# E(MeV)  S_GAMTGAMT(K=0) for Np244_DDPCX
-4.16026000 2.52286000e-03
-4.13026000 2.55318000e-03
-4.10026000 2.58179000e-03
-4.07026000 2.60906000e-03
-4.04026000 2.63525000e-03
-4.01026000 2.66058000e-03
-3.98026000 2.68520000e-03
-3.95026000 2.70926000e-03
-3.92026000 2.73287000e-03
-3.89026000 2.75614000e-03
-3.86026000 2.77914000e-03
-3.83026000 2.80196000e-03
-3.80026000 2.82467000e-03
-3.77026000 2.84735000e-03
-3.74026000 2.87006000e-03
-3.71026000 2.89287000e-03
-3.66301000 2.92917000e-03
-3.63301000 2.95256000e-03
-3.60301000 2.97631000e-03
-3.57301000 3.00052000e-03
-3.54301000 3.02528000e-03
-3.51301000 3.05070000e-03
-3.48301000 3.07693000e-03
-3.45301000 3.10410000e-03
-3.42301000 3.13242000e-03
-3.39301000 3.16210000e-03
-3.36301000 3.19344000e-03
-3.33301000 3.22677000e-03
-3.30301000 3.26255000e-03
-3.27301000 3.30134000e-03
-3.24301000 3.34389000e-03
-3.21301000 3.39120000e-03
-3.16576000 3.47877000e-03
-3.13576000 3.54582000e-03
-3.10576000 3.62545000e-03
-3.07576000 3.72242000e-03
-3.04576000 3.84398000e-03
-3.01576000 4.00156000e-03
-2.98576000 4.21402000e-03
-2.95576000 4.51406000e-03
-2.92576000 4.96200000e-03
-2.89576000 5.67727000e-03
-2.86576000 6.91567000e-03
-2.83576000 9.25939000e-03
-2.80576000 1.39131000e-02
-2.77576000 2.09999000e-02
-2.74576000 2.14032000e-02
-2.71576000 1.43944000e-02
-2.66850000 8.00289000e-03
-2.63850000 6.37228000e-03
-2.60850000 5.49036000e-03
-2.57850000 4.97582000e-03
-2.54850000 4.65678000e-03
-2.51850000 4.44953000e-03
-2.48850000 4.31001000e-03
-2.45850000 4.21321000e-03
-2.42850000 4.14380000e-03
-2.39850000 4.09129000e-03
-2.36850000 4.04710000e-03
-2.33850000 4.00167000e-03
-2.30850000 3.93989000e-03
-2.27850000 3.83150000e-03
-2.24850000 3.62591000e-03
-2.21850000 3.40235000e-03
-2.17125000 3.70630000e-03
-2.14125000 3.91300000e-03
-2.11125000 4.02843000e-03
-2.08125000 4.09986000e-03
-2.05125000 4.15151000e-03
-2.02125000 4.19391000e-03
-1.99125000 4.23188000e-03
-1.96125000 4.26778000e-03
-1.93125000 4.30287000e-03
-1.90125000 4.33783000e-03
-1.87125000 4.37310000e-03
-1.84125000 4.40892000e-03
-1.81125000 4.44548000e-03
-1.78125000 4.48290000e-03
-1.75125000 4.52127000e-03
-1.72125000 4.56066000e-03
-1.67400000 4.62497000e-03
-1.64400000 4.66732000e-03
-1.61400000 4.71093000e-03
-1.58400000 4.75587000e-03
-1.55400000 4.80221000e-03
-1.52400000 4.85004000e-03
-1.49400000 4.89943000e-03
-1.46400000 4.95049000e-03
-1.43400000 5.00331000e-03
-1.40400000 5.05803000e-03
-1.37400000 5.11477000e-03
-1.34400000 5.17369000e-03
-1.31400000 5.23497000e-03
-1.28400000 5.29882000e-03
-1.25400000 5.36546000e-03
-1.22400000 5.43517000e-03
-1.17674000 5.55202000e-03
-1.14674000 5.63132000e-03
-1.11674000 5.71519000e-03
-1.08674000 5.80428000e-03
-1.05674000 5.89940000e-03
-1.02674000 6.00157000e-03
-0.99674400 6.11209000e-03
-0.96674400 6.23268000e-03
-0.93674400 6.36563000e-03
-0.90674400 6.51404000e-03
-0.87674400 6.68228000e-03
-0.84674400 6.87660000e-03
-0.81674400 7.10627000e-03
-0.78674400 7.38552000e-03
-0.75674400 7.73712000e-03
-0.72674400 8.19925000e-03
-0.67949000 9.33480000e-03
-0.64949000 1.05643000e-02
-0.61949000 1.26405000e-02
-0.58949000 1.65027000e-02
-0.55949000 2.40794000e-02
-0.52949000 3.54037000e-02
-0.49949000 3.57611000e-02
-0.46949000 2.47582000e-02
-0.43949000 1.73789000e-02
-0.40949000 1.37687000e-02
-0.37949000 1.19807000e-02
-0.34949000 1.10602000e-02
-0.31949000 1.05891000e-02
-0.28949000 1.03743000e-02
-0.25949000 1.03199000e-02
-0.22949000 1.03762000e-02
-0.18223700 1.06316000e-02
-0.15223700 1.08859000e-02
-0.12223700 1.12152000e-02
-0.09223690 1.16374000e-02
-0.06223690 1.21949000e-02
-0.03223690 1.29843000e-02
-0.00223686 1.42191000e-02
0.02776310 1.61465000e-02
0.05776310 1.77063000e-02
0.08776310 1.73594000e-02
0.11776300 1.68897000e-02
0.14776300 1.73043000e-02
0.17776300 1.84095000e-02
0.20776300 1.94074000e-02
0.23776300 2.04644000e-02
0.26776300 2.25274000e-02
0.31501700 2.91811000e-02
0.34501700 3.24367000e-02
0.37501700 3.10505000e-02
0.40501700 3.04118000e-02
0.43501700 3.17073000e-02
0.46501700 3.44298000e-02
0.49501700 3.84702000e-02
0.52501700 4.41355000e-02
0.55501700 5.22224000e-02
0.58501700 6.43381000e-02
0.61501700 8.31881000e-02
0.64501700 1.11196000e-01
0.67501700 1.34989000e-01
0.70501700 1.50828000e-01
0.73501700 1.88359000e-01
0.76501700 2.68515000e-01
