# E(MeV)  S_GAMTGAMT(K=1) for Pa274_DDPCX
-13.82730000 1.81009000e-03
-13.79730000 1.87038000e-03
-13.76730000 1.92224000e-03
-13.73730000 1.96743000e-03
-13.70730000 2.00725000e-03
-13.67730000 2.04268000e-03
-13.64730000 2.07448000e-03
-13.61730000 2.10323000e-03
-13.58730000 2.12935000e-03
-13.55730000 2.15320000e-03
-13.52730000 2.17552000e-03
-13.49730000 2.19680000e-03
-13.46730000 2.21666000e-03
-13.43730000 2.23522000e-03
-13.40730000 2.25268000e-03
-13.37730000 2.26921000e-03
-13.34730000 2.28489000e-03
-13.31730000 2.29979000e-03
-13.28730000 2.31410000e-03
-13.25730000 2.32806000e-03
-13.22730000 2.34152000e-03
-13.19730000 2.35452000e-03
-13.16730000 2.36707000e-03
-13.13730000 2.37914000e-03
-13.10730000 2.39075000e-03
-13.07730000 2.40187000e-03
-13.04730000 2.41245000e-03
-13.01730000 2.42238000e-03
-12.98730000 2.43144000e-03
-12.95730000 2.43922000e-03
-12.92730000 2.44491000e-03
-12.89730000 2.44681000e-03
-12.86730000 2.44114000e-03
-12.83730000 2.42053000e-03
-12.80730000 2.38394000e-03
-12.77730000 2.35776000e-03
-12.74730000 2.36054000e-03
-12.71730000 2.41136000e-03
-12.68730000 2.46519000e-03
-12.65730000 2.50813000e-03
-12.62730000 2.53621000e-03
-12.59730000 2.55536000e-03
-12.56730000 2.56951000e-03
-12.53730000 2.57989000e-03
-12.50730000 2.58736000e-03
-12.47730000 2.59786000e-03
-12.44730000 2.61113000e-03
-12.41730000 2.62338000e-03
-12.36330000 2.64785000e-03
-12.33330000 2.65977000e-03
-12.30330000 2.67083000e-03
-12.27330000 2.68144000e-03
-12.24330000 2.69180000e-03
-12.21330000 2.70201000e-03
-12.18330000 2.71213000e-03
-12.15330000 2.72218000e-03
-12.12330000 2.73219000e-03
-12.09330000 2.74218000e-03
-12.06330000 2.75215000e-03
-12.03330000 2.76211000e-03
-12.00330000 2.77206000e-03
-11.97330000 2.78202000e-03
-11.94330000 2.79198000e-03
-11.91330000 2.80194000e-03
-11.88330000 2.81192000e-03
-11.85330000 2.82192000e-03
-11.82330000 2.83193000e-03
-11.79330000 2.84196000e-03
-11.76330000 2.85201000e-03
-11.73330000 2.86208000e-03
-11.70330000 2.87218000e-03
-11.67330000 2.88230000e-03
-11.64330000 2.89245000e-03
-11.61330000 2.90262000e-03
-11.58330000 2.91283000e-03
-11.55330000 2.92306000e-03
-11.52330000 2.93333000e-03
-11.49330000 2.94363000e-03
-11.46330000 2.95397000e-03
-11.43330000 2.96434000e-03
-11.40330000 2.97475000e-03
-11.37330000 2.98519000e-03
-11.34330000 2.99567000e-03
-11.31330000 3.00619000e-03
-11.28330000 3.01675000e-03
-11.25330000 3.02736000e-03
-11.22330000 3.03800000e-03
-11.19330000 3.04868000e-03
-11.16330000 3.05941000e-03
-11.13330000 3.07018000e-03
-11.10330000 3.08100000e-03
-11.07330000 3.09186000e-03
-11.04330000 3.10277000e-03
-11.01330000 3.11373000e-03
-10.98330000 3.12474000e-03
-10.95330000 3.13579000e-03
-10.89940000 3.15580000e-03
-10.86940000 3.16699000e-03
-10.83940000 3.17824000e-03
-10.80940000 3.18953000e-03
-10.77940000 3.20089000e-03
-10.74940000 3.21229000e-03
-10.71940000 3.22375000e-03
-10.68940000 3.23527000e-03
-10.65940000 3.24684000e-03
-10.62940000 3.25847000e-03
-10.59940000 3.27015000e-03
-10.56940000 3.28190000e-03
-10.53940000 3.29370000e-03
-10.50940000 3.30556000e-03
-10.47940000 3.31748000e-03
-10.44940000 3.32947000e-03
-10.41940000 3.34152000e-03
-10.38940000 3.35363000e-03
-10.35940000 3.36580000e-03
-10.32940000 3.37804000e-03
-10.29940000 3.39034000e-03
-10.26940000 3.40271000e-03
-10.23940000 3.41514000e-03
-10.20940000 3.42764000e-03
-10.17940000 3.44021000e-03
-10.14940000 3.45285000e-03
-10.11940000 3.46556000e-03
-10.08940000 3.47834000e-03
-10.05940000 3.49119000e-03
-10.02940000 3.50411000e-03
-9.99938000 3.51711000e-03
-9.96938000 3.53018000e-03
-9.93938000 3.54332000e-03
-9.90938000 3.55654000e-03
-9.87938000 3.56984000e-03
-9.84938000 3.58321000e-03
-9.81938000 3.59666000e-03
-9.78938000 3.61019000e-03
-9.75938000 3.62380000e-03
-9.72938000 3.63750000e-03
-9.69938000 3.65127000e-03
-9.66938000 3.66512000e-03
-9.63938000 3.67906000e-03
-9.60938000 3.69309000e-03
-9.57938000 3.70720000e-03
-9.54938000 3.72139000e-03
-9.51938000 3.73568000e-03
-9.48938000 3.75005000e-03
-9.43543000 3.77613000e-03
-9.40543000 3.79075000e-03
-9.37543000 3.80547000e-03
-9.34543000 3.82028000e-03
-9.31543000 3.83519000e-03
-9.28543000 3.85019000e-03
-9.25543000 3.86529000e-03
-9.22543000 3.88048000e-03
-9.19543000 3.89578000e-03
-9.16543000 3.91118000e-03
-9.13543000 3.92668000e-03
-9.10543000 3.94228000e-03
-9.07543000 3.95799000e-03
-9.04543000 3.97380000e-03
-9.01543000 3.98972000e-03
-8.98543000 4.00574000e-03
-8.95543000 4.02188000e-03
-8.92543000 4.03813000e-03
-8.89543000 4.05449000e-03
-8.86543000 4.07096000e-03
-8.83543000 4.08755000e-03
-8.80543000 4.10426000e-03
-8.77543000 4.12109000e-03
-8.74543000 4.13804000e-03
-8.71543000 4.15511000e-03
-8.68543000 4.17231000e-03
-8.65543000 4.18964000e-03
-8.62543000 4.20711000e-03
-8.59543000 4.22471000e-03
-8.56543000 4.24247000e-03
-8.53543000 4.26040000e-03
-8.50543000 4.27855000e-03
-8.47543000 4.29700000e-03
-8.44543000 4.31591000e-03
-8.41543000 4.33517000e-03
-8.38543000 4.35384000e-03
-8.35543000 4.37248000e-03
-8.32543000 4.39084000e-03
-8.29543000 4.40891000e-03
-8.26543000 4.42747000e-03
-8.23543000 4.44644000e-03
-8.20543000 4.46569000e-03
-8.17543000 4.48517000e-03
-8.14543000 4.50485000e-03
-8.11543000 4.52471000e-03
-8.08543000 4.54475000e-03
-8.05543000 4.56498000e-03
-8.02543000 4.58539000e-03
-7.97147000 4.62256000e-03
-7.94147000 4.64351000e-03
-7.91147000 4.66467000e-03
-7.88147000 4.68604000e-03
-7.85147000 4.70767000e-03
-7.82147000 4.72960000e-03
-7.79147000 4.75192000e-03
-7.76147000 4.77479000e-03
-7.73147000 4.79840000e-03
-7.70147000 4.82182000e-03
-7.67147000 4.84356000e-03
-7.64147000 4.86551000e-03
-7.61147000 4.88831000e-03
-7.58147000 4.91173000e-03
-7.55147000 4.93568000e-03
-7.52147000 4.96019000e-03
-7.49147000 4.98537000e-03
-7.46147000 5.01098000e-03
-7.43147000 5.03650000e-03
-7.40147000 5.06299000e-03
-7.37147000 5.09039000e-03
-7.34147000 5.11817000e-03
-7.31147000 5.14605000e-03
-7.28147000 5.17182000e-03
-7.25147000 5.19744000e-03
-7.22147000 5.22462000e-03
-7.19147000 5.25336000e-03
-7.16147000 5.28340000e-03
-7.13147000 5.31472000e-03
-7.10147000 5.34745000e-03
-7.07147000 5.38185000e-03
-7.04147000 5.41827000e-03
-7.01147000 5.45727000e-03
-6.98147000 5.49961000e-03
-6.95147000 5.54643000e-03
-6.92147000 5.59943000e-03
-6.89147000 5.66125000e-03
-6.86147000 5.73621000e-03
-6.83147000 5.83166000e-03
-6.80147000 5.96086000e-03
-6.77147000 6.14947000e-03
-6.74147000 6.45113000e-03
-6.71147000 6.98626000e-03
-6.68147000 8.02175000e-03
-6.65147000 9.84263000e-03
-6.62147000 1.08709000e-02
-6.59147000 9.27028000e-03
-6.56147000 7.76071000e-03
-6.50751000 6.69496000e-03
-6.47751000 6.50133000e-03
-6.44751000 6.40866000e-03
-6.41751000 6.33905000e-03
-6.38751000 6.30177000e-03
-6.35751000 6.29844000e-03
-6.32751000 6.32274000e-03
-6.29751000 6.37734000e-03
-6.26751000 6.47911000e-03
-6.23751000 6.65787000e-03
-6.20751000 6.84552000e-03
-6.17751000 6.86204000e-03
-6.14751000 6.90822000e-03
-6.11751000 6.99271000e-03
-6.08751000 7.03078000e-03
-6.05751000 7.09784000e-03
-6.02751000 7.27181000e-03
-5.99751000 7.58719000e-03
-5.96751000 7.61692000e-03
-5.93751000 7.47955000e-03
-5.90751000 7.52240000e-03
-5.87751000 7.47876000e-03
-5.84751000 7.36952000e-03
-5.81751000 7.22366000e-03
-5.78751000 7.09308000e-03
-5.75751000 7.03565000e-03
-5.72751000 7.02802000e-03
-5.69751000 7.04422000e-03
-5.66751000 7.06910000e-03
-5.63751000 7.10422000e-03
-5.60751000 7.14947000e-03
-5.57751000 7.20261000e-03
-5.54751000 7.26174000e-03
-5.51751000 7.33038000e-03
-5.48751000 7.41313000e-03
-5.45751000 7.51648000e-03
-5.42751000 7.65494000e-03
-5.39751000 7.86064000e-03
-5.36751000 8.20467000e-03
-5.33751000 8.81347000e-03
-5.30751000 9.53245000e-03
-5.27751000 9.47756000e-03
-5.24751000 9.20071000e-03
-5.21751000 9.29432000e-03
-5.18751000 9.82018000e-03
-5.15751000 1.00997000e-02
-5.12751000 9.53514000e-03
-5.09751000 9.14475000e-03
-5.04356000 9.39223000e-03
-5.01356000 9.46593000e-03
-4.98356000 9.37471000e-03
-4.95356000 9.61305000e-03
-4.92356000 1.01165000e-02
-4.89356000 1.00884000e-02
-4.86356000 9.74069000e-03
-4.83356000 9.56666000e-03
-4.80356000 9.59442000e-03
-4.77356000 9.85736000e-03
-4.74356000 1.00301000e-02
-4.71356000 1.00601000e-02
-4.68356000 1.03851000e-02
-4.65356000 1.11616000e-02
-4.62356000 1.19089000e-02
-4.59356000 1.18380000e-02
-4.56356000 1.19513000e-02
-4.53356000 1.30626000e-02
-4.50356000 1.56415000e-02
-4.47356000 1.80786000e-02
-4.44356000 1.60621000e-02
-4.41356000 1.32469000e-02
-4.38356000 1.17594000e-02
-4.35356000 1.10689000e-02
-4.32356000 1.07564000e-02
-4.29356000 1.05849000e-02
-4.26356000 1.04836000e-02
-4.23356000 1.04597000e-02
-4.20356000 1.04973000e-02
-4.17356000 1.05908000e-02
-4.14356000 1.07060000e-02
-4.11356000 1.07514000e-02
-4.08356000 1.07927000e-02
-4.05356000 1.08797000e-02
-4.02356000 1.10101000e-02
-3.99356000 1.11941000e-02
-3.96356000 1.14637000e-02
-3.93356000 1.18233000e-02
-3.90356000 1.21892000e-02
-3.87356000 1.27098000e-02
-3.84356000 1.32851000e-02
-3.81356000 1.30893000e-02
-3.78356000 1.26524000e-02
-3.75356000 1.25275000e-02
-3.72356000 1.26449000e-02
-3.69356000 1.28850000e-02
-3.66356000 1.31394000e-02
-3.63356000 1.32048000e-02
-3.57960000 1.33525000e-02
-3.54960000 1.34985000e-02
-3.51960000 1.35830000e-02
-3.48960000 1.37474000e-02
-3.45960000 1.38699000e-02
-3.42960000 1.40164000e-02
-3.39960000 1.43210000e-02
-3.36960000 1.47948000e-02
-3.33960000 1.51218000e-02
-3.30960000 1.50564000e-02
-3.27960000 1.50173000e-02
-3.24960000 1.51463000e-02
-3.21960000 1.54153000e-02
-3.18960000 1.58259000e-02
-3.15960000 1.63234000e-02
-3.12960000 1.69786000e-02
-3.09960000 1.79934000e-02
-3.06960000 1.86560000e-02
-3.03960000 1.83324000e-02
-3.00960000 1.77852000e-02
-2.97960000 1.75964000e-02
-2.94960000 1.76563000e-02
-2.91960000 1.78430000e-02
-2.88960000 1.81008000e-02
-2.85960000 1.84059000e-02
-2.82960000 1.87490000e-02
-2.79960000 1.91271000e-02
-2.76960000 1.95409000e-02
-2.73960000 1.99997000e-02
-2.70960000 2.05206000e-02
-2.67960000 2.11364000e-02
-2.64960000 2.19127000e-02
-2.61960000 2.29403000e-02
-2.58960000 2.42775000e-02
-2.55960000 2.63873000e-02
-2.52960000 2.93297000e-02
-2.49960000 2.97222000e-02
-2.46960000 2.78906000e-02
-2.43960000 2.69412000e-02
-2.40960000 2.67844000e-02
-2.37960000 2.70704000e-02
-2.34960000 2.76462000e-02
-2.31960000 2.84880000e-02
-2.28960000 2.96317000e-02
-2.25960000 3.09384000e-02
-2.22960000 3.15753000e-02
-2.19960000 3.19419000e-02
-2.16960000 3.26154000e-02
-2.11564000 3.43911000e-02
-2.08564000 3.55897000e-02
-2.05564000 3.69320000e-02
-2.02564000 3.84488000e-02
-1.99564000 4.01627000e-02
-1.96564000 4.18844000e-02
-1.93564000 4.35980000e-02
-1.90564000 4.56364000e-02
-1.87564000 4.79845000e-02
-1.84564000 5.01151000e-02
-1.81564000 5.22104000e-02
-1.78564000 5.46902000e-02
-1.75564000 5.75531000e-02
-1.72564000 6.07788000e-02
-1.69564000 6.43921000e-02
-1.66564000 6.84326000e-02
-1.63564000 7.29579000e-02
-1.60564000 7.80781000e-02
-1.57564000 8.39204000e-02
-1.54564000 9.06538000e-02
-1.51564000 9.85239000e-02
-1.48564000 1.07855000e-01
-1.45564000 1.18826000e-01
-1.42564000 1.31902000e-01
-1.39564000 1.48551000e-01
-1.36564000 1.70830000e-01
-1.33564000 2.02601000e-01
-1.30564000 2.50308000e-01
-1.27564000 3.16851000e-01
-1.24564000 4.04151000e-01
-1.21564000 5.00599000e-01
-1.18564000 5.55737000e-01
-1.15564000 6.42870000e-01
-1.12564000 7.78866000e-01
-1.09564000 9.79154000e-01
-1.06564000 1.15769000e+00
-1.03564000 1.20689000e+00
-1.00564000 1.27784000e+00
-0.97564300 1.29977000e+00
-0.94564300 1.35883000e+00
-0.91564300 1.53813000e+00
-0.88564300 1.96039000e+00
-0.85564300 2.71248000e+00
-0.82564300 3.95549000e+00
-0.79564300 6.32774000e+00
-0.76564300 1.10234000e+01
-0.73564300 1.61027000e+01
-0.70564300 1.30239000e+01
-0.65168700 4.69260000e+00
-0.62168700 2.86755000e+00
-0.59168700 1.90070000e+00
-0.56168700 1.34354000e+00
-0.53168700 9.97866000e-01
-0.50168700 7.70144000e-01
-0.47168700 6.12667000e-01
-0.44168700 4.99492000e-01
-0.41168700 4.15576000e-01
-0.38168700 3.51685000e-01
-0.35168700 3.01952000e-01
-0.32168700 2.62451000e-01
-0.29168700 2.30523000e-01
-0.26168700 2.04410000e-01
-0.23168700 1.82806000e-01
-0.20168700 1.64714000e-01
-0.17168700 1.49427000e-01
-0.14168700 1.36411000e-01
-0.11168700 1.25254000e-01
-0.08168650 1.15623000e-01
-0.05168650 1.07197000e-01
-0.02168650 9.97782000e-02
0.00831345 9.32714000e-02
0.03831350 8.75054000e-02
0.06831350 8.23585000e-02
0.09831350 7.77800000e-02
0.12831300 7.36956000e-02
0.15831300 7.00380000e-02
0.18831300 6.67548000e-02
0.21831300 6.38012000e-02
0.24831300 6.11328000e-02
0.27831300 5.87237000e-02
0.30831300 5.65177000e-02
0.33831300 5.44651000e-02
0.36831300 5.26027000e-02
0.39831300 5.09123000e-02
0.42831300 4.93533000e-02
0.45831300 4.79336000e-02
0.48831300 4.66484000e-02
0.51831300 4.54879000e-02
0.54831300 4.44409000e-02
0.57831300 4.34504000e-02
0.60831300 4.25163000e-02
0.63831300 4.16739000e-02
0.66831300 4.08890000e-02
0.69831300 4.01669000e-02
0.72831300 3.95179000e-02
0.75831300 3.89340000e-02
