# E(MeV)  S_NSDRNSDR(Total=K0+2*K1) for Ra239_DDPCX
-4.50007000 4.66142700e-01
-4.47007000 4.77121700e-01
-4.44007000 4.88412300e-01
-4.41007000 5.00034200e-01
-4.38007000 5.12007400e-01
-4.35007000 5.24358300e-01
-4.32007000 5.37113500e-01
-4.29007000 5.50296300e-01
-4.26007000 5.63942000e-01
-4.23007000 5.78083000e-01
-4.20007000 5.92753000e-01
-4.17007000 6.07996000e-01
-4.14007000 6.23856000e-01
-4.11007000 6.40381000e-01
-4.08007000 6.57628000e-01
-4.05007000 6.75657000e-01
-4.02007000 6.94536000e-01
-3.96884000 7.28973000e-01
-3.93884000 7.50576000e-01
-3.90884000 7.73369000e-01
-3.87884000 7.97478000e-01
-3.84884000 8.23044000e-01
-3.81884000 8.50232000e-01
-3.78884000 8.79228000e-01
-3.75884000 9.10258000e-01
-3.72884000 9.43579000e-01
-3.69884000 9.79502000e-01
-3.66884000 1.01839100e+00
-3.63884000 1.06068800e+00
-3.60884000 1.10692900e+00
-3.57884000 1.15776900e+00
-3.54884000 1.21401200e+00
-3.51884000 1.27667500e+00
-3.48884000 1.34702900e+00
-3.43761000 1.48990100e+00
-3.40761000 1.59082200e+00
-3.37761000 1.70858600e+00
-3.34761000 1.84793700e+00
-3.31761000 2.01550000e+00
-3.28761000 2.22076200e+00
-3.25761000 2.47771700e+00
-3.22761000 2.80775400e+00
-3.19761000 3.24474100e+00
-3.16761000 3.84511700e+00
-3.13761000 4.70799800e+00
-3.10761000 6.01953900e+00
-3.07761000 8.15663700e+00
-3.04761000 1.19446950e+01
-3.01761000 1.92536900e+01
-2.98761000 3.32109600e+01
-2.95761000 4.78902700e+01
-2.90637000 2.89462500e+01
-2.87637000 2.04714500e+01
-2.84637000 1.93519900e+01
-2.81637000 2.34656000e+01
-2.78637000 2.39413000e+01
-2.75637000 1.65729000e+01
-2.72637000 1.10881800e+01
-2.69637000 8.47036000e+00
-2.66637000 7.53122000e+00
-2.63637000 7.70784000e+00
-2.60637000 7.87743000e+00
-2.57637000 6.94983000e+00
-2.54637000 6.02603000e+00
-2.51637000 5.53912000e+00
-2.48637000 5.38466000e+00
-2.45637000 5.47623700e+00
-2.42637000 5.75979800e+00
-2.37514000 6.68303100e+00
-2.34514000 7.55100000e+00
-2.31514000 8.78410500e+00
-2.28514000 1.05876500e+01
-2.25514000 1.33564700e+01
-2.22514000 1.78180800e+01
-2.19514000 2.52203200e+01
-2.16514000 3.90094900e+01
-2.13514000 6.46675200e+01
-2.10514000 8.71763300e+01
-2.07514000 7.04163800e+01
-2.04514000 4.94321500e+01
-2.01514000 4.24122800e+01
-1.98514000 4.67078100e+01
-1.95514000 6.38079300e+01
-1.92514000 1.02505900e+02
-1.89514000 1.63683300e+02
-1.84390000 1.51799900e+02
-1.81390000 1.05269500e+02
-1.78390000 6.50437000e+01
-1.75390000 4.25573000e+01
-1.72390000 3.15812800e+01
-1.69390000 2.70383800e+01
-1.66390000 2.62995000e+01
-1.63390000 2.44479100e+01
-1.60390000 2.11803400e+01
-1.57390000 2.01235600e+01
-1.54390000 2.16098800e+01
-1.51390000 2.61806800e+01
-1.48390000 3.60689700e+01
-1.45390000 5.64563600e+01
-1.42390000 9.12325000e+01
-1.39390000 1.04649100e+02
-1.36390000 7.18594300e+01
-1.31267000 3.48550600e+01
-1.28267000 2.80011100e+01
-1.25267000 2.59604500e+01
-1.22267000 2.54489200e+01
-1.19267000 2.63796400e+01
-1.16267000 3.07884200e+01
-1.13267000 4.10849000e+01
-1.10267000 6.27969600e+01
-1.07267000 1.02023320e+02
-1.04267000 1.25145150e+02
-1.01267000 9.30372700e+01
-0.98266800 6.45461600e+01
-0.95266800 5.12506700e+01
-0.92266800 4.28644500e+01
-0.89266800 4.01022200e+01
-0.86266800 4.32283800e+01
-0.83266800 4.90745000e+01
-0.78143300 6.49652000e+01
-0.75143300 8.62436000e+01
-0.72143300 1.32130500e+02
-0.69143300 2.08778900e+02
-0.66143300 2.49464400e+02
-0.63143300 2.08757100e+02
-0.60143300 1.76800100e+02
-0.57143300 1.95065500e+02
-0.54143300 2.49386300e+02
-0.51143300 2.63904300e+02
-0.48143300 2.15793500e+02
-0.45143300 1.79497900e+02
-0.42143300 1.75239900e+02
-0.39143300 1.88829600e+02
-0.36143300 1.90964300e+02
-0.33143300 1.83487300e+02
-0.30143300 1.44948400e+02
-0.25019900 9.24779000e+01
-0.22019900 8.14275000e+01
-0.19019900 8.92694000e+01
-0.16019900 1.12562900e+02
-0.13019900 1.17048400e+02
-0.10019900 9.93032000e+01
-0.07019900 8.91875000e+01
-0.04019900 9.01892000e+01
-0.01019900 8.18594000e+01
0.01980100 7.75428000e+01
0.04980100 7.73205000e+01
0.07980100 7.46811000e+01
0.10980100 8.73262000e+01
0.13980100 1.20851900e+02
0.16980100 1.49429100e+02
0.19980100 1.49766700e+02
0.22980100 1.39882900e+02
0.28103600 1.52679400e+02
0.31103600 1.37648100e+02
0.34103600 9.86307000e+01
0.37103600 7.81317000e+01
0.40103600 7.83579000e+01
0.43103600 1.00508100e+02
0.46103600 1.55624200e+02
0.49103600 2.28901600e+02
0.52103600 2.11004200e+02
0.55103600 1.37557900e+02
0.58103600 8.71752000e+01
0.61103600 6.40433600e+01
0.64103600 5.45339000e+01
0.67103600 4.22756500e+01
0.70103600 3.09387100e+01
0.73103600 2.42017600e+01
0.76103600 2.07558700e+01
