# E(MeV)  S_NSDRNSDR(K=1) for Re202_DDPCX
-11.30630000 -1.21451000e+00
-11.27630000 -1.15228000e+00
-11.24630000 -1.09503000e+00
-11.21630000 -1.04219000e+00
-11.18630000 -9.93248000e-01
-11.15630000 -9.47789000e-01
-11.12630000 -9.05455000e-01
-11.09630000 -8.65941000e-01
-11.06630000 -8.28978000e-01
-11.03630000 -7.94335000e-01
-11.00630000 -7.61805000e-01
-10.97630000 -7.31209000e-01
-10.94630000 -7.02385000e-01
-10.91630000 -6.75190000e-01
-10.88630000 -6.49496000e-01
-10.85630000 -6.25189000e-01
-10.82630000 -6.02164000e-01
-10.79630000 -5.80328000e-01
-10.76630000 -5.59596000e-01
-10.73630000 -5.39891000e-01
-10.70630000 -5.21143000e-01
-10.67630000 -5.03288000e-01
-10.64630000 -4.86266000e-01
-10.61630000 -4.70026000e-01
-10.58630000 -4.54516000e-01
-10.55630000 -4.39692000e-01
-10.52630000 -4.25513000e-01
-10.49630000 -4.11938000e-01
-10.46630000 -3.98933000e-01
-10.43630000 -3.86465000e-01
-10.40630000 -3.74504000e-01
-10.37630000 -3.63019000e-01
-10.34630000 -3.51986000e-01
-10.31630000 -3.41379000e-01
-10.28630000 -3.31176000e-01
-10.25630000 -3.21356000e-01
-10.22630000 -3.11897000e-01
-10.19630000 -3.02782000e-01
-10.16630000 -2.93993000e-01
-10.13630000 -2.85513000e-01
-10.09450000 -2.74170000e-01
-10.06450000 -2.66371000e-01
-10.03450000 -2.58833000e-01
-10.00450000 -2.51544000e-01
-9.97446000 -2.44491000e-01
-9.94446000 -2.37663000e-01
-9.91446000 -2.31051000e-01
-9.88446000 -2.24644000e-01
-9.85446000 -2.18433000e-01
-9.82446000 -2.12409000e-01
-9.79446000 -2.06564000e-01
-9.76446000 -2.00889000e-01
-9.73446000 -1.95378000e-01
-9.70446000 -1.90022000e-01
-9.67446000 -1.84816000e-01
-9.64446000 -1.79752000e-01
-9.61446000 -1.74825000e-01
-9.58446000 -1.70028000e-01
-9.55446000 -1.65357000e-01
-9.52446000 -1.60805000e-01
-9.49446000 -1.56367000e-01
-9.46446000 -1.52039000e-01
-9.43446000 -1.47816000e-01
-9.40446000 -1.43693000e-01
-9.37446000 -1.39666000e-01
-9.34446000 -1.35731000e-01
-9.31446000 -1.31883000e-01
-9.28446000 -1.28119000e-01
-9.25446000 -1.24434000e-01
-9.22446000 -1.20826000e-01
-9.19446000 -1.17290000e-01
-9.16446000 -1.13822000e-01
-9.13446000 -1.10420000e-01
-9.10446000 -1.07079000e-01
-9.07446000 -1.03796000e-01
-9.04446000 -1.00568000e-01
-9.01446000 -9.73909000e-02
-8.98446000 -9.42611000e-02
-8.95446000 -9.11750000e-02
-8.92446000 -8.81287000e-02
-8.88260000 -8.39371000e-02
-8.85260000 -8.09695000e-02
-8.82260000 -7.80272000e-02
-8.79260000 -7.51050000e-02
-8.76260000 -7.21976000e-02
-8.73260000 -6.92988000e-02
-8.70260000 -6.64017000e-02
-8.67260000 -6.34986000e-02
-8.64260000 -6.05804000e-02
-8.61260000 -5.76367000e-02
-8.58260000 -5.46549000e-02
-8.55260000 -5.16202000e-02
-8.52260000 -4.85146000e-02
-8.49260000 -4.53157000e-02
-8.46260000 -4.19958000e-02
-8.43260000 -3.85197000e-02
-8.40260000 -3.48423000e-02
-8.37260000 -3.09045000e-02
-8.34260000 -2.66280000e-02
-8.31260000 -2.19064000e-02
-8.28260000 -1.65927000e-02
-8.25260000 -1.04782000e-02
-8.22260000 -3.25881000e-03
-8.19260000 5.52303000e-03
-8.16260000 1.65829000e-02
-8.13260000 3.10879000e-02
-8.10260000 5.09792000e-02
-8.07260000 7.93403000e-02
-8.04260000 1.22290000e-01
-8.01260000 1.93635000e-01
-7.98260000 3.23069000e-01
-7.95260000 5.77310000e-01
-7.92260000 1.05305000e+00
-7.89260000 1.45178000e+00
-7.86260000 1.07451000e+00
-7.83260000 5.95920000e-01
-7.80260000 3.39967000e-01
-7.77260000 2.11685000e-01
-7.74260000 1.42730000e-01
-7.71260000 1.02766000e-01
-7.67074000 7.11098000e-02
-7.64074000 5.77134000e-02
-7.61074000 4.87730000e-02
-7.58074000 4.27413000e-02
-7.55074000 3.86872000e-02
-7.52074000 3.60259000e-02
-7.49074000 3.43760000e-02
-7.46074000 3.34812000e-02
-7.43074000 3.31647000e-02
-7.40074000 3.33017000e-02
-7.37074000 3.38029000e-02
-7.34074000 3.46036000e-02
-7.31074000 3.56563000e-02
-7.28074000 3.69263000e-02
-7.25074000 3.83882000e-02
-7.22074000 4.00240000e-02
-7.19074000 4.18215000e-02
-7.16074000 4.37731000e-02
-7.13074000 4.58753000e-02
-7.10074000 4.81280000e-02
-7.07074000 5.05345000e-02
-7.04074000 5.31017000e-02
-7.01074000 5.58397000e-02
-6.98074000 5.87627000e-02
-6.95074000 6.18890000e-02
-6.92074000 6.52426000e-02
-6.89074000 6.88538000e-02
-6.86074000 7.27613000e-02
-6.83074000 7.70145000e-02
-6.80074000 8.16769000e-02
-6.77074000 8.68317000e-02
-6.74074000 9.25884000e-02
-6.71074000 9.90947000e-02
-6.68074000 1.06553000e-01
-6.65074000 1.15249000e-01
-6.62074000 1.25593000e-01
-6.59074000 1.38199000e-01
-6.56074000 1.54013000e-01
-6.53074000 1.74557000e-01
-6.50074000 2.02408000e-01
-6.45888000 2.62920000e-01
-6.42888000 3.35939000e-01
-6.39888000 4.60473000e-01
-6.36888000 6.93546000e-01
-6.33888000 1.15274000e+00
-6.30888000 1.84581000e+00
-6.27888000 1.88005000e+00
-6.24888000 1.20514000e+00
-6.21888000 7.48205000e-01
-6.18888000 5.24457000e-01
-6.15888000 4.13983000e-01
-6.12888000 3.57819000e-01
-6.09888000 3.30284000e-01
-6.06888000 3.19681000e-01
-6.03888000 3.20428000e-01
-6.00888000 3.29894000e-01
-5.97888000 3.47071000e-01
-5.94888000 3.72026000e-01
-5.91888000 4.05750000e-01
-5.88888000 4.50277000e-01
-5.85888000 5.09099000e-01
-5.82888000 5.88069000e-01
-5.79888000 6.97283000e-01
-5.76888000 8.55159000e-01
-5.73888000 1.09795000e+00
-5.70888000 1.50308000e+00
-5.67888000 2.24102000e+00
-5.64888000 3.56671000e+00
-5.61888000 4.82564000e+00
-5.58888000 4.34151000e+00
-5.55888000 3.82075000e+00
-5.52888000 4.32689000e+00
-5.49888000 6.16717000e+00
-5.46888000 1.03016000e+01
-5.43888000 1.70512000e+01
-5.40888000 1.81197000e+01
-5.37888000 1.13566000e+01
-5.34888000 6.45711000e+00
-5.31888000 3.99483000e+00
-5.28888000 2.73235000e+00
-5.24702000 1.86087000e+00
-5.21702000 1.55250000e+00
-5.18702000 1.40153000e+00
-5.15702000 1.38119000e+00
-5.12702000 1.51128000e+00
-5.09702000 1.88039000e+00
-5.06702000 2.71065000e+00
-5.03702000 4.28589000e+00
-5.00702000 5.47160000e+00
-4.97702000 4.67366000e+00
-4.94702000 4.01990000e+00
-4.91702000 3.09128000e+00
-4.88702000 1.98060000e+00
-4.85702000 1.32541000e+00
-4.82702000 9.74553000e-01
-4.79702000 7.73127000e-01
-4.76702000 6.48058000e-01
-4.73702000 5.65432000e-01
-4.70702000 5.08299000e-01
-4.67702000 4.67507000e-01
-4.64702000 4.37768000e-01
-4.61702000 4.15856000e-01
-4.58702000 3.99709000e-01
-4.55702000 3.87963000e-01
-4.52702000 3.79688000e-01
-4.49702000 3.74238000e-01
-4.46702000 3.71161000e-01
-4.43702000 3.70137000e-01
-4.40702000 3.70952000e-01
-4.37702000 3.73467000e-01
-4.34702000 3.77614000e-01
-4.31702000 3.83387000e-01
-4.28702000 3.90847000e-01
-4.25702000 4.00136000e-01
-4.22702000 4.11501000e-01
-4.19702000 4.25344000e-01
-4.16702000 4.42304000e-01
-4.13702000 4.63423000e-01
-4.10702000 4.90450000e-01
-4.07702000 5.26491000e-01
-4.03516000 6.03928000e-01
-4.00516000 6.98265000e-01
-3.97516000 8.63918000e-01
-3.94516000 1.17995000e+00
-3.91516000 1.70207000e+00
-3.88516000 1.89451000e+00
-3.85516000 1.43498000e+00
-3.82516000 1.07194000e+00
-3.79516000 9.02768000e-01
-3.76516000 8.32797000e-01
-3.73516000 8.11313000e-01
-3.70516000 8.16465000e-01
-3.67516000 8.38694000e-01
-3.64516000 8.73830000e-01
-3.61516000 9.20359000e-01
-3.58516000 9.78344000e-01
-3.55516000 1.04906000e+00
-3.52516000 1.13502000e+00
-3.49516000 1.24043000e+00
-3.46516000 1.37207000e+00
-3.43516000 1.54121000e+00
-3.40516000 1.76771000e+00
-3.37516000 2.08905000e+00
-3.34516000 2.58241000e+00
-3.31516000 3.41909000e+00
-3.28516000 4.96605000e+00
-3.25516000 7.48111000e+00
-3.22516000 8.53504000e+00
-3.19516000 6.71743000e+00
-3.16516000 5.35065000e+00
-3.13516000 4.93615000e+00
-3.10516000 5.14164000e+00
-3.07516000 5.80745000e+00
-3.04516000 6.95493000e+00
-3.01516000 8.76217000e+00
-2.98516000 1.16305000e+01
-2.95516000 1.64037000e+01
-2.92516000 2.49387000e+01
-2.89516000 4.14832000e+01
-2.86516000 7.40129000e+01
-2.82331000 1.18936000e+02
-2.79331000 8.44669000e+01
-2.76331000 4.79437000e+01
-2.73331000 2.90199000e+01
-2.70331000 1.97812000e+01
-2.67331000 1.52658000e+01
-2.64331000 1.34906000e+01
-2.61331000 1.39469000e+01
-2.58331000 1.66645000e+01
-2.55331000 2.22039000e+01
-2.52331000 3.14136000e+01
-2.49331000 3.16201000e+01
-2.46331000 2.18345000e+01
-2.43331000 1.59849000e+01
-2.40331000 1.50298000e+01
-2.37331000 1.83759000e+01
-2.34331000 2.36249000e+01
-2.31331000 2.10732000e+01
-2.28331000 1.40426000e+01
-2.25331000 9.94460000e+00
-2.22331000 8.20777000e+00
-2.19331000 7.85899000e+00
-2.16331000 8.68069000e+00
-2.13331000 1.11354000e+01
-2.10331000 1.65579000e+01
-2.07331000 2.51993000e+01
-2.04331000 2.66176000e+01
-2.01331000 1.98913000e+01
-1.98331000 1.71826000e+01
-1.95331000 1.87162000e+01
-1.92331000 1.82881000e+01
-1.89331000 1.62441000e+01
-1.86331000 1.62915000e+01
-1.83331000 1.88479000e+01
-1.80331000 1.75949000e+01
-1.77331000 1.30383000e+01
-1.74331000 1.05149000e+01
-1.71331000 9.90423000e+00
-1.68331000 1.04667000e+01
-1.65331000 1.21833000e+01
-1.61145000 1.76994000e+01
-1.58145000 2.45903000e+01
-1.55145000 3.30284000e+01
-1.52145000 4.73173000e+01
-1.49145000 7.55109000e+01
-1.46145000 1.11817000e+02
-1.43145000 1.08729000e+02
-1.40145000 8.17162000e+01
-1.37145000 5.65292000e+01
-1.34145000 4.23084000e+01
-1.31145000 3.80541000e+01
-1.28145000 3.40954000e+01
-1.25145000 2.91030000e+01
-1.22145000 2.56743000e+01
-1.19145000 2.40995000e+01
-1.16145000 2.68270000e+01
-1.13145000 3.65188000e+01
-1.10145000 5.10025000e+01
-1.07145000 4.99335000e+01
-1.04145000 3.55942000e+01
-1.01145000 2.52904000e+01
-0.98144700 2.14916000e+01
-0.95144700 2.06644000e+01
-0.92144700 1.95942000e+01
-0.89144700 1.66425000e+01
-0.86144700 1.60788000e+01
-0.83144700 2.02142000e+01
-0.80144700 2.77220000e+01
-0.77144700 2.65194000e+01
-0.74144700 1.93383000e+01
-0.71144700 1.58635000e+01
-0.68144700 1.27702000e+01
-0.65144700 1.01785000e+01
-0.62144700 9.85159000e+00
-0.59144700 1.22108000e+01
-0.56144700 1.79763000e+01
-0.53144700 2.18409000e+01
-0.50144700 1.59509000e+01
-0.47144700 9.86224000e+00
-0.44144700 6.39326000e+00
-0.39958900 3.95828000e+00
-0.36958900 3.04954000e+00
-0.33958900 2.46988000e+00
-0.30958900 2.07360000e+00
-0.27958900 1.78739000e+00
-0.24958900 1.57163000e+00
-0.21958900 1.40341000e+00
-0.18958900 1.26867000e+00
-0.15958900 1.15837000e+00
-0.12958900 1.06647000e+00
-0.09958870 9.88779000e-01
-0.06958870 9.22293000e-01
-0.03958870 8.64829000e-01
-0.00958875 8.14752000e-01
0.02041130 7.70818000e-01
0.05041130 7.32069000e-01
0.08041130 6.97754000e-01
0.11041100 6.67286000e-01
0.14041100 6.40198000e-01
0.17041100 6.16127000e-01
0.20041100 5.94787000e-01
0.23041100 5.75969000e-01
0.26041100 5.59526000e-01
0.29041100 5.45384000e-01
0.32041100 5.33540000e-01
0.35041100 5.24095000e-01
0.38041100 5.17298000e-01
0.41041100 5.13654000e-01
0.44041100 5.14165000e-01
0.47041100 5.20907000e-01
0.50041100 5.38008000e-01
0.53041100 5.68379000e-01
0.56041100 5.94781000e-01
0.59041100 6.17599000e-01
0.62041100 6.49619000e-01
0.65041100 7.01214000e-01
0.68041100 8.18654000e-01
0.71041100 1.06379000e+00
0.74041100 1.49916000e+00
0.77041100 1.87640000e+00
