# E(MeV)  S_GAMTGAMT(Total=K0+2*K1) for Re221_DDPCX
-12.42900000 8.01902000e-03
-12.39900000 8.04165000e-03
-12.36900000 8.06617000e-03
-12.33900000 8.09276000e-03
-12.30900000 8.12200000e-03
-12.27900000 8.15274000e-03
-12.24900000 8.18421000e-03
-12.21900000 8.21596000e-03
-12.18900000 8.24754000e-03
-12.15900000 8.27829000e-03
-12.12900000 8.30690000e-03
-12.09900000 8.33070000e-03
-12.06900000 8.34906000e-03
-12.03900000 8.37991000e-03
-12.00900000 8.42357000e-03
-11.97900000 8.45695000e-03
-11.94900000 8.48007000e-03
-11.91900000 8.52016000e-03
-11.88900000 8.57693000e-03
-11.85900000 8.62747000e-03
-11.82900000 8.67245000e-03
-11.79900000 8.71528000e-03
-11.76900000 8.75776000e-03
-11.73900000 8.80104000e-03
-11.70900000 8.84610000e-03
-11.67900000 8.89428000e-03
-11.64900000 8.94781000e-03
-11.61900000 9.01092000e-03
-11.58900000 9.09259000e-03
-11.55900000 9.21315000e-03
-11.52900000 9.41506000e-03
-11.49900000 9.70827000e-03
-11.46900000 9.77676000e-03
-11.43900000 9.56693000e-03
-11.40900000 9.43125000e-03
-11.37900000 9.38421000e-03
-11.34900000 9.38085000e-03
-11.31900000 9.39880000e-03
-11.28900000 9.42871000e-03
-11.25900000 9.46725000e-03
-11.22900000 9.51452000e-03
-11.19900000 9.57171000e-03
-11.16900000 9.63312000e-03
-11.13900000 9.70021000e-03
-11.10490000 9.74829000e-03
-11.07490000 9.76653000e-03
-11.04490000 9.80063000e-03
-11.01490000 9.85052000e-03
-10.98490000 9.91433000e-03
-10.95490000 9.99620000e-03
-10.92490000 1.01091600e-02
-10.89490000 1.02846000e-02
-10.86490000 1.05914300e-02
-10.83490000 1.10781700e-02
-10.80490000 1.12749400e-02
-10.77490000 1.08992800e-02
-10.74490000 1.06068700e-02
-10.71490000 1.04826500e-02
-10.68490000 1.04434000e-02
-10.65490000 1.04442500e-02
-10.62490000 1.04656200e-02
-10.59490000 1.04985100e-02
-10.56490000 1.05385500e-02
-10.53490000 1.05834300e-02
-10.50490000 1.06319000e-02
-10.47490000 1.06832900e-02
-10.44490000 1.07373100e-02
-10.41490000 1.07938800e-02
-10.38490000 1.08532100e-02
-10.35490000 1.09157300e-02
-10.32490000 1.09822800e-02
-10.29490000 1.10543900e-02
-10.26490000 1.11348700e-02
-10.23490000 1.12293300e-02
-10.20490000 1.13496700e-02
-10.17490000 1.15223400e-02
-10.14490000 1.17902900e-02
-10.11490000 1.20740300e-02
-10.08490000 1.21034700e-02
-10.05490000 1.21110500e-02
-10.02490000 1.21654700e-02
-9.99490000 1.22495200e-02
-9.96490000 1.24121400e-02
-9.93490000 1.27941800e-02
-9.90490000 1.35714800e-02
-9.87490000 1.44240400e-02
-9.84490000 1.40369200e-02
-9.81490000 1.32713900e-02
-9.78077000 1.28733500e-02
-9.75077000 1.27952900e-02
-9.72077000 1.28663000e-02
-9.69077000 1.30771800e-02
-9.66077000 1.35017800e-02
-9.63077000 1.43231800e-02
-9.60077000 1.54925700e-02
-9.57077000 1.55472700e-02
-9.54077000 1.45805000e-02
-9.51077000 1.39826100e-02
-9.48077000 1.37760200e-02
-9.45077000 1.37310900e-02
-9.42077000 1.37878700e-02
-9.39077000 1.39603900e-02
-9.36077000 1.42587900e-02
-9.33077000 1.47543600e-02
-9.30077000 1.56263400e-02
-9.27077000 1.72824600e-02
-9.24077000 2.03843000e-02
-9.21077000 2.34722000e-02
-9.18077000 2.16451300e-02
-9.15077000 1.85580700e-02
-9.12077000 1.68265500e-02
-9.09077000 1.60926600e-02
-9.06077000 1.58737400e-02
-9.03077000 1.59268200e-02
-9.00077000 1.63736600e-02
-8.97077000 1.72353100e-02
-8.94077000 1.76597900e-02
-8.91077000 1.74327000e-02
-8.88077000 1.72587700e-02
-8.85077000 1.76870300e-02
-8.82077000 1.84289700e-02
-8.79077000 1.82172500e-02
-8.76077000 1.76032600e-02
-8.73077000 1.72694900e-02
-8.70077000 1.73457300e-02
-8.67077000 1.77873600e-02
-8.64077000 1.81131600e-02
-8.61077000 1.82667100e-02
-8.58077000 1.88491100e-02
-8.55077000 1.97493100e-02
-8.52077000 2.09013700e-02
-8.49077000 2.16860900e-02
-8.45664000 2.22523000e-02
-8.42664000 2.39056100e-02
-8.39664000 2.48831200e-02
-8.36664000 2.49513000e-02
-8.33664000 2.49447000e-02
-8.30664000 2.43248300e-02
-8.27664000 2.46335300e-02
-8.24664000 2.50407300e-02
-8.21664000 2.46469600e-02
-8.18664000 2.49723200e-02
-8.15664000 2.60445800e-02
-8.12664000 2.75098200e-02
-8.09664000 2.99519600e-02
-8.06664000 3.39312600e-02
-8.03664000 3.92723200e-02
-8.00664000 4.74945000e-02
-7.97664000 6.23614000e-02
-7.94664000 9.16321000e-02
-7.91664000 1.35247300e-01
-7.88664000 1.42624800e-01
-7.85664000 1.07417100e-01
-7.82664000 8.16630000e-02
-7.79664000 7.65324000e-02
-7.76664000 8.85409000e-02
-7.73664000 1.06823600e-01
-7.70664000 1.15443800e-01
-7.67664000 1.14446400e-01
-7.64664000 1.26233500e-01
-7.61664000 1.44587200e-01
-7.58664000 1.36962500e-01
-7.55664000 1.08412400e-01
-7.52664000 8.36011000e-02
-7.49664000 7.66539000e-02
-7.46664000 8.57297000e-02
-7.43664000 9.87747000e-02
-7.40664000 9.11239000e-02
-7.37664000 7.80094000e-02
-7.34664000 7.30773000e-02
-7.31664000 7.01177000e-02
-7.28664000 6.35833000e-02
-7.25664000 6.30993000e-02
-7.22664000 7.15925000e-02
-7.19664000 8.89031000e-02
-7.16664000 1.23742800e-01
-7.13251000 1.77462200e-01
-7.10251000 1.58101400e-01
-7.07251000 1.11053400e-01
-7.04251000 8.70945000e-02
-7.01251000 8.13666000e-02
-6.98251000 8.08220000e-02
-6.95251000 8.40269000e-02
-6.92251000 1.02784800e-01
-6.89251000 1.30266800e-01
-6.86251000 1.25128200e-01
-6.83251000 1.09398600e-01
-6.80251000 1.10208200e-01
-6.77251000 1.15588300e-01
-6.74251000 1.07211000e-01
-6.71251000 9.87753000e-02
-6.68251000 1.04532400e-01
-6.65251000 1.07226100e-01
-6.62251000 1.03601500e-01
-6.59251000 1.11174800e-01
-6.56251000 1.22721800e-01
-6.53251000 1.27110600e-01
-6.50251000 1.48705700e-01
-6.47251000 1.83498100e-01
-6.44251000 1.84416500e-01
-6.41251000 1.36185600e-01
-6.38251000 9.76733000e-02
-6.35251000 7.95558000e-02
-6.32251000 7.33602000e-02
-6.29251000 7.50825000e-02
-6.26251000 8.46282000e-02
-6.23251000 1.04218600e-01
-6.20251000 1.41745400e-01
-6.17251000 2.11121400e-01
-6.14251000 2.63639200e-01
-6.11251000 2.24991200e-01
-6.08251000 1.56861400e-01
-6.05251000 1.14053400e-01
-6.02251000 9.31586000e-02
-5.99251000 8.16283000e-02
-5.96251000 7.70610000e-02
-5.93251000 7.82695000e-02
-5.90251000 8.50851000e-02
-5.87251000 9.91536000e-02
-5.84251000 1.26141200e-01
-5.80838000 1.92035100e-01
-5.77838000 3.05057100e-01
-5.74838000 3.95185100e-01
-5.71838000 3.13663300e-01
-5.68838000 2.13652000e-01
-5.65838000 1.60844300e-01
-5.62838000 1.38921700e-01
-5.59838000 1.36763300e-01
-5.56838000 1.47816000e-01
-5.53838000 1.41349700e-01
-5.50838000 1.19392100e-01
-5.47838000 1.02031400e-01
-5.44838000 9.09220000e-02
-5.41838000 8.35921000e-02
-5.38838000 8.02082000e-02
-5.35838000 8.02614000e-02
-5.32838000 8.30095000e-02
-5.29838000 8.80746000e-02
-5.26838000 9.54364000e-02
-5.23838000 1.03556900e-01
-5.20838000 1.08344700e-01
-5.17838000 1.15672200e-01
-5.14838000 1.27981100e-01
-5.11838000 1.44925300e-01
-5.08838000 1.71112600e-01
-5.05838000 2.12410400e-01
-5.02838000 2.74981800e-01
-4.99838000 3.77958400e-01
-4.96838000 5.59809000e-01
-4.93838000 7.83582000e-01
-4.90838000 1.01302800e+00
-4.87838000 1.14671600e+00
-4.84838000 9.60878000e-01
-4.81838000 8.04977000e-01
-4.78838000 7.21895000e-01
-4.75838000 6.59665000e-01
-4.72838000 6.56755000e-01
-4.69838000 7.43915400e-01
-4.66838000 1.00387600e+00
-4.63838000 1.54920120e+00
-4.60838000 2.17383600e+00
-4.57838000 2.49210140e+00
-4.54838000 2.00660320e+00
-4.51838000 1.21390480e+00
-4.48425000 7.13279800e-01
-4.45425000 5.05451000e-01
-4.42425000 3.98906400e-01
-4.39425000 3.42415800e-01
-4.36425000 3.21197400e-01
-4.33425000 3.33886800e-01
-4.30425000 3.85684400e-01
-4.27425000 4.97865400e-01
-4.24425000 6.52337000e-01
-4.21425000 8.63255600e-01
-4.18425000 1.04143880e+00
-4.15425000 8.23703600e-01
-4.12425000 5.68272200e-01
-4.09425000 4.33922600e-01
-4.06425000 3.85273800e-01
-4.03425000 3.73428000e-01
-4.00425000 3.86935000e-01
-3.97425000 4.56092000e-01
-3.94425000 6.13119000e-01
-3.91425000 8.77647900e-01
-3.88425000 1.08108480e+00
-3.85425000 8.97379100e-01
-3.82425000 6.28233000e-01
-3.79425000 4.70409000e-01
-3.76425000 3.82286000e-01
-3.73425000 3.47628000e-01
-3.70425000 3.53009000e-01
-3.67425000 3.98208000e-01
-3.64425000 4.94027000e-01
-3.61425000 5.99265000e-01
-3.58425000 6.44322000e-01
-3.55425000 7.15436000e-01
-3.52425000 8.78116000e-01
-3.49425000 1.21512200e+00
-3.46425000 1.92735200e+00
-3.43425000 3.08383000e+00
-3.40425000 3.41019400e+00
-3.37425000 2.28565800e+00
-3.34425000 1.41318400e+00
-3.31425000 9.96836000e-01
-3.28425000 8.16106000e-01
-3.25425000 7.31581000e-01
-3.22425000 6.70675000e-01
-3.19425000 6.14142000e-01
-3.16012000 6.17693000e-01
-3.13012000 6.63934000e-01
-3.10012000 7.24379000e-01
-3.07012000 8.05280000e-01
-3.04012000 9.00966200e-01
-3.01012000 1.01636560e+00
-2.98012000 1.24147870e+00
-2.95012000 1.66170660e+00
-2.92012000 2.33544050e+00
-2.89012000 3.24215920e+00
-2.86012000 4.31190700e+00
-2.83012000 5.63133000e+00
-2.80012000 8.24717600e+00
-2.77012000 1.20944390e+01
-2.74012000 1.17932990e+01
-2.71012000 8.02071500e+00
-2.68012000 4.94772700e+00
-2.65012000 3.37808100e+00
-2.62012000 2.69362200e+00
-2.59012000 2.46975200e+00
-2.56012000 2.51558800e+00
-2.53012000 2.26118500e+00
-2.50012000 1.75362500e+00
-2.47012000 1.38863700e+00
-2.44012000 1.23178600e+00
-2.41012000 1.22616300e+00
-2.38012000 1.35330400e+00
-2.35012000 1.64006400e+00
-2.32012000 2.13101100e+00
-2.29012000 3.01260000e+00
-2.26012000 4.73821000e+00
-2.23012000 6.95615000e+00
-2.20012000 7.39025000e+00
-2.17012000 6.57359000e+00
-2.14012000 6.67756000e+00
-2.11012000 6.76674600e+00
-2.08012000 4.74473700e+00
-2.05012000 2.94089400e+00
-2.02012000 1.99111300e+00
-1.99012000 1.50548400e+00
-1.96012000 1.24619500e+00
-1.93012000 1.12488400e+00
-1.90012000 1.10275400e+00
-1.87012000 1.17248600e+00
-1.83599000 1.39893500e+00
-1.80599000 1.71609400e+00
-1.77599000 1.98552800e+00
-1.74599000 2.40214000e+00
-1.71599000 3.27950300e+00
-1.68599000 4.93119100e+00
-1.65599000 8.26963500e+00
-1.62599000 1.33711090e+01
-1.59599000 1.36926480e+01
-1.56599000 8.69565700e+00
-1.53599000 5.07057100e+00
-1.50599000 3.19374700e+00
-1.47599000 2.16951500e+00
-1.44599000 1.58018700e+00
-1.41599000 1.25684700e+00
-1.38599000 1.09113800e+00
-1.35599000 9.56814000e-01
-1.32599000 8.51663000e-01
-1.29599000 7.94698000e-01
-1.26599000 6.96066000e-01
-1.23599000 6.16064000e-01
-1.20599000 5.95724000e-01
-1.17599000 6.59883000e-01
-1.14599000 8.19015000e-01
-1.11599000 8.66194000e-01
-1.08599000 6.65458000e-01
-1.05599000 4.94217600e-01
-1.02599000 4.03754600e-01
-0.99599000 3.54482600e-01
-0.96599000 3.27869900e-01
-0.93599000 3.24434000e-01
-0.90599000 3.31040500e-01
-0.87599000 3.13491600e-01
-0.84599000 3.07131500e-01
-0.81599000 3.24622400e-01
-0.78599000 3.51304000e-01
-0.75599000 3.51221800e-01
-0.72599000 3.10239400e-01
-0.69599000 2.80290300e-01
-0.66599000 2.79064400e-01
-0.63599000 2.99184000e-01
-0.60599000 3.19951000e-01
-0.57599000 3.62531000e-01
-0.54599000 4.22539000e-01
-0.51186000 4.74126000e-01
-0.48186000 5.65143000e-01
-0.45186000 7.06085400e-01
-0.42186000 6.88944800e-01
-0.39186000 5.17469400e-01
-0.36186000 4.22088000e-01
-0.33186000 4.12647400e-01
-0.30186000 4.76726400e-01
-0.27186000 6.20681200e-01
-0.24186000 7.77513800e-01
-0.21186000 7.75831200e-01
-0.18186000 6.74035800e-01
-0.15186000 6.07994000e-01
-0.12186000 4.94839000e-01
-0.09186010 4.07862000e-01
-0.06186010 3.74577400e-01
-0.03186010 3.83907800e-01
-0.00186013 4.33476000e-01
0.02813990 5.40318000e-01
0.05813990 7.52560000e-01
0.08813990 1.14911000e+00
0.11814000 1.57124200e+00
0.14814000 1.54436200e+00
0.17814000 1.40520800e+00
0.20814000 1.49349100e+00
0.23814000 1.93529400e+00
0.26814000 2.38349000e+00
0.29814000 2.06035700e+00
0.32814000 1.43865000e+00
0.35814000 9.92776000e-01
0.38814000 7.70822000e-01
0.41814000 6.81218000e-01
0.44814000 6.65417000e-01
0.47814000 6.71155000e-01
0.50814000 6.89436000e-01
0.53814000 8.01062000e-01
0.56814000 1.02779900e+00
0.59814000 1.27407200e+00
0.62814000 1.40464000e+00
0.65814000 1.33205600e+00
0.68814000 1.32336100e+00
0.71814000 1.42839200e+00
0.74814000 1.70595200e+00
0.77814000 1.92524000e+00
