# E(MeV)  S_GAMTGAMT(K=0) for Re221_DDPCX
-12.42900000 2.69698000e-03
-12.39900000 2.69511000e-03
-12.36900000 2.69915000e-03
-12.33900000 2.70608000e-03
-12.30900000 2.71454000e-03
-12.27900000 2.72388000e-03
-12.24900000 2.73375000e-03
-12.21900000 2.74396000e-03
-12.18900000 2.75436000e-03
-12.15900000 2.76483000e-03
-12.12900000 2.77526000e-03
-12.09900000 2.78546000e-03
-12.06900000 2.79508000e-03
-12.03900000 2.80341000e-03
-12.00900000 2.80889000e-03
-11.97900000 2.80831000e-03
-11.94900000 2.80215000e-03
-11.91900000 2.81506000e-03
-11.88900000 2.84539000e-03
-11.85900000 2.86959000e-03
-11.82900000 2.88795000e-03
-11.79900000 2.90358000e-03
-11.76900000 2.91796000e-03
-11.73900000 2.93178000e-03
-11.70900000 2.94534000e-03
-11.67900000 2.95880000e-03
-11.64900000 2.97225000e-03
-11.61900000 2.98574000e-03
-11.58900000 2.99931000e-03
-11.55900000 3.01299000e-03
-11.52900000 3.02680000e-03
-11.49900000 3.04075000e-03
-11.46900000 3.05488000e-03
-11.43900000 3.06919000e-03
-11.40900000 3.08371000e-03
-11.37900000 3.09847000e-03
-11.34900000 3.11351000e-03
-11.31900000 3.12886000e-03
-11.28900000 3.14457000e-03
-11.25900000 3.16073000e-03
-11.22900000 3.17742000e-03
-11.19900000 3.19477000e-03
-11.16900000 3.21298000e-03
-11.13900000 3.23231000e-03
-11.10490000 3.25619000e-03
-11.07490000 3.27957000e-03
-11.04490000 3.30631000e-03
-11.01490000 3.33830000e-03
-10.98490000 3.37895000e-03
-10.95490000 3.43496000e-03
-10.92490000 3.52046000e-03
-10.89490000 3.66738000e-03
-10.86490000 3.94491000e-03
-10.83490000 4.40173000e-03
-10.80490000 4.56804000e-03
-10.77490000 4.16142000e-03
-10.74490000 3.83757000e-03
-10.71490000 3.68147000e-03
-10.68490000 3.60986000e-03
-10.65490000 3.57791000e-03
-10.62490000 3.56598000e-03
-10.59490000 3.56509000e-03
-10.56490000 3.57081000e-03
-10.53490000 3.58081000e-03
-10.50490000 3.59380000e-03
-10.47490000 3.60905000e-03
-10.44490000 3.62617000e-03
-10.41490000 3.64502000e-03
-10.38490000 3.66565000e-03
-10.35490000 3.68833000e-03
-10.32490000 3.71366000e-03
-10.29490000 3.74283000e-03
-10.26490000 3.77815000e-03
-10.23490000 3.82441000e-03
-10.20490000 3.89221000e-03
-10.17490000 4.00564000e-03
-10.14490000 4.20313000e-03
-10.11490000 4.39573000e-03
-10.08490000 4.29505000e-03
-10.05490000 4.12921000e-03
-10.02490000 4.05069000e-03
-9.99490000 4.02590000e-03
-9.96490000 4.02722000e-03
-9.93490000 4.04266000e-03
-9.90490000 4.06736000e-03
-9.87490000 4.09976000e-03
-9.84490000 4.14020000e-03
-9.81490000 4.19079000e-03
-9.78077000 4.26657000e-03
-9.75077000 4.35957000e-03
-9.72077000 4.49732000e-03
-9.69077000 4.72216000e-03
-9.66077000 5.13064000e-03
-9.63077000 5.91612000e-03
-9.60077000 7.03403000e-03
-9.57077000 7.02213000e-03
-9.54077000 5.97024000e-03
-9.51077000 5.26069000e-03
-9.48077000 4.91862000e-03
-9.45077000 4.75727000e-03
-9.42077000 4.68355000e-03
-9.39077000 4.65503000e-03
-9.36077000 4.64547000e-03
-9.33077000 4.64938000e-03
-9.30077000 4.66758000e-03
-9.27077000 4.69882000e-03
-9.24077000 4.74576000e-03
-9.21077000 4.81620000e-03
-9.18077000 4.89769000e-03
-9.15077000 4.91949000e-03
-9.12077000 4.91903000e-03
-9.09077000 4.94384000e-03
-9.06077000 4.98928000e-03
-9.03077000 5.05080000e-03
-9.00077000 5.12984000e-03
-8.97077000 5.23393000e-03
-8.94077000 5.38063000e-03
-8.91077000 5.60968000e-03
-8.88077000 6.01171000e-03
-8.85077000 6.73677000e-03
-8.82077000 7.49423000e-03
-8.79077000 7.14627000e-03
-8.76077000 6.45214000e-03
-8.73077000 6.09613000e-03
-8.70077000 5.96335000e-03
-8.67077000 5.94000000e-03
-8.64077000 5.97584000e-03
-8.61077000 6.05061000e-03
-8.58077000 6.15787000e-03
-8.55077000 6.29973000e-03
-8.52077000 6.48693000e-03
-8.49077000 6.73965000e-03
-8.45664000 7.14750000e-03
-8.42664000 7.72765000e-03
-8.39664000 8.67198000e-03
-8.36664000 9.91480000e-03
-8.33664000 1.05894000e-02
-8.30664000 9.83485000e-03
-8.27664000 9.20737000e-03
-8.24664000 9.14893000e-03
-8.21664000 9.48630000e-03
-8.18664000 1.01284000e-02
-8.15664000 1.09092000e-02
-8.12664000 1.18882000e-02
-8.09664000 1.34176000e-02
-8.06664000 1.58230000e-02
-8.03664000 1.96364000e-02
-8.00664000 2.61295000e-02
-7.97664000 3.84738000e-02
-7.94664000 6.26709000e-02
-7.91664000 9.57395000e-02
-7.88664000 9.14782000e-02
-7.85664000 6.09289000e-02
-7.82664000 4.33766000e-02
-7.79664000 3.82882000e-02
-7.76664000 4.23585000e-02
-7.73664000 5.47660000e-02
-7.70664000 6.86204000e-02
-7.67664000 6.94576000e-02
-7.64664000 7.77191000e-02
-7.61664000 8.51484000e-02
-7.58664000 6.39153000e-02
-7.55664000 4.47086000e-02
-7.52664000 3.76749000e-02
-7.49664000 4.04369000e-02
-7.46664000 5.32835000e-02
-7.43664000 6.60583000e-02
-7.40664000 5.51121000e-02
-7.37664000 3.73672000e-02
-7.34664000 2.60109000e-02
-7.31664000 1.99607000e-02
-7.28664000 1.67553000e-02
-7.25664000 1.49989000e-02
-7.22664000 1.38543000e-02
-7.19664000 1.30115000e-02
-7.16664000 1.25276000e-02
-7.13251000 1.23400000e-02
-7.10251000 1.24724000e-02
-7.07251000 1.29600000e-02
-7.04251000 1.38293000e-02
-7.01251000 1.44256000e-02
-6.98251000 1.45178000e-02
-6.95251000 1.48997000e-02
-6.92251000 1.60618000e-02
-6.89251000 1.83276000e-02
-6.86251000 2.25270000e-02
-6.83251000 3.03502000e-02
-6.80251000 4.33894000e-02
-6.77251000 5.86781000e-02
-6.74251000 5.58812000e-02
-6.71251000 4.41839000e-02
-6.68251000 3.82822000e-02
-6.65251000 3.36937000e-02
-6.62251000 3.05779000e-02
-6.59251000 2.91772000e-02
-6.56251000 3.11000000e-02
-6.53251000 3.78812000e-02
-6.50251000 5.30263000e-02
-6.47251000 7.05157000e-02
-6.44251000 6.19873000e-02
-6.41251000 4.44712000e-02
-6.38251000 3.55983000e-02
-6.35251000 3.29864000e-02
-6.32251000 3.43190000e-02
-6.29251000 3.93391000e-02
-6.26251000 4.96172000e-02
-6.23251000 6.93790000e-02
-6.20251000 1.08340000e-01
-6.17251000 1.78943000e-01
-6.14251000 2.31876000e-01
-6.11251000 1.92963000e-01
-6.08251000 1.23177000e-01
-6.05251000 7.71214000e-02
-6.02251000 5.35368000e-02
-5.99251000 4.12247000e-02
-5.96251000 3.45290000e-02
-5.93251000 3.08941000e-02
-5.90251000 2.92753000e-02
-5.87251000 2.87766000e-02
-5.84251000 2.92278000e-02
-5.80838000 3.26923000e-02
-5.77838000 3.99991000e-02
-5.74838000 4.72491000e-02
-5.71838000 4.47213000e-02
-5.68838000 4.01778000e-02
-5.65838000 3.83649000e-02
-5.62838000 3.98445000e-02
-5.59838000 4.05717000e-02
-5.56838000 4.20810000e-02
-5.53838000 4.02527000e-02
-5.50838000 3.82449000e-02
-5.47838000 3.93600000e-02
-5.44838000 3.90758000e-02
-5.41838000 3.73223000e-02
-5.38838000 3.67098000e-02
-5.35838000 3.77422000e-02
-5.32838000 4.01191000e-02
-5.29838000 4.39226000e-02
-5.26838000 4.99084000e-02
-5.23838000 5.61185000e-02
-5.20838000 5.83199000e-02
-5.17838000 6.14324000e-02
-5.14838000 6.79753000e-02
-5.11838000 7.79643000e-02
-5.08838000 9.22084000e-02
-5.05838000 1.13546000e-01
-5.02838000 1.44574000e-01
-4.99838000 1.90823000e-01
-4.96838000 2.73587000e-01
-4.93838000 4.35502000e-01
-4.90838000 7.15530000e-01
-4.87838000 8.76576000e-01
-4.84838000 7.07174000e-01
-4.81838000 5.66331000e-01
-4.78838000 4.62373000e-01
-4.75838000 4.17113000e-01
-4.72838000 4.56613000e-01
-4.69838000 5.84913000e-01
-4.66838000 8.69743000e-01
-4.63838000 1.41655000e+00
-4.60838000 2.01454000e+00
-4.57838000 2.29340000e+00
-4.54838000 1.82880000e+00
-4.51838000 1.08232000e+00
-4.48425000 6.10280000e-01
-4.45425000 4.11819000e-01
-4.42425000 3.07276000e-01
-4.39425000 2.51828000e-01
-4.36425000 2.27270000e-01
-4.33425000 2.27050000e-01
-4.30425000 2.49515000e-01
-4.27425000 3.10887000e-01
-4.24425000 4.43481000e-01
-4.21425000 6.92684000e-01
-4.18425000 8.96680000e-01
-4.15425000 6.84486000e-01
-4.12425000 4.24563000e-01
-4.09425000 2.73989000e-01
-4.06425000 1.94912000e-01
-4.03425000 1.54466000e-01
-4.00425000 1.34365000e-01
-3.97425000 1.19760000e-01
-3.94425000 1.06455000e-01
-3.91425000 9.88879000e-02
-3.88425000 9.58648000e-02
-3.85425000 9.64631000e-02
-3.82425000 1.00297000e-01
-3.79425000 1.05477000e-01
-3.76425000 1.12884000e-01
-3.73425000 1.25436000e-01
-3.70425000 1.45341000e-01
-3.67425000 1.76896000e-01
-3.64425000 2.26461000e-01
-3.61425000 2.84921000e-01
-3.58425000 3.38246000e-01
-3.55425000 4.33668000e-01
-3.52425000 6.21770000e-01
-3.49425000 9.90836000e-01
-3.46425000 1.72226000e+00
-3.43425000 2.88272000e+00
-3.40425000 3.20070000e+00
-3.37425000 2.06028000e+00
-3.34425000 1.16104000e+00
-3.31425000 6.99528000e-01
-3.28425000 4.61120000e-01
-3.25425000 3.27909000e-01
-3.22425000 2.47601000e-01
-3.19425000 1.96142000e-01
-3.16012000 1.57695000e-01
-3.13012000 1.34782000e-01
-3.10012000 1.18581000e-01
-3.07012000 1.07152000e-01
-3.04012000 9.91122000e-02
-3.01012000 9.34696000e-02
-2.98012000 9.00427000e-02
-2.95012000 8.84026000e-02
-2.92012000 8.85005000e-02
-2.89012000 9.12992000e-02
-2.86012000 9.71870000e-02
-2.83012000 1.06750000e-01
-2.80012000 1.22076000e-01
-2.77012000 1.43399000e-01
-2.74012000 1.58879000e-01
-2.71012000 1.76495000e-01
-2.68012000 2.17867000e-01
-2.65012000 3.01241000e-01
-2.62012000 4.54482000e-01
-2.59012000 7.16178000e-01
-2.56012000 9.95390000e-01
-2.53012000 8.37747000e-01
-2.50012000 5.43455000e-01
-2.47012000 3.90549000e-01
-2.44012000 3.32818000e-01
-2.41012000 3.32023000e-01
-2.38012000 3.78028000e-01
-2.35012000 4.77114000e-01
-2.32012000 6.55599000e-01
-2.29012000 1.00136000e+00
-2.26012000 1.69919000e+00
-2.23012000 2.81315000e+00
-2.20012000 3.34583000e+00
-2.17012000 2.48589000e+00
-2.14012000 1.45464000e+00
-2.11012000 8.70586000e-01
-2.08012000 5.70357000e-01
-2.05012000 4.05514000e-01
-2.02012000 3.04141000e-01
-1.99012000 2.41068000e-01
-1.96012000 1.95659000e-01
-1.93012000 1.64798000e-01
-1.90012000 1.47690000e-01
-1.87012000 1.40598000e-01
-1.83599000 1.40257000e-01
-1.80599000 1.37956000e-01
-1.77599000 1.35806000e-01
-1.74599000 1.43940000e-01
-1.71599000 1.56323000e-01
-1.68599000 1.48171000e-01
-1.65599000 1.22135000e-01
-1.62599000 1.05869000e-01
-1.59599000 1.01948000e-01
-1.56599000 1.09817000e-01
-1.53599000 1.35271000e-01
-1.50599000 1.65467000e-01
-1.47599000 1.48595000e-01
-1.44599000 1.22415000e-01
-1.41599000 1.20323000e-01
-1.38599000 1.36658000e-01
-1.35599000 1.60202000e-01
-1.32599000 2.05995000e-01
-1.29599000 2.51476000e-01
-1.26599000 2.12724000e-01
-1.23599000 1.58482000e-01
-1.20599000 1.25720000e-01
-1.17599000 1.17969000e-01
-1.14599000 1.26891000e-01
-1.11599000 1.22398000e-01
-1.08599000 1.01954000e-01
-1.05599000 8.25136000e-02
-1.02599000 7.20426000e-02
-0.99599000 6.94406000e-02
-0.96599000 6.48199000e-02
-0.93599000 5.83860000e-02
-0.90599000 5.43745000e-02
-0.87599000 5.27316000e-02
-0.84599000 5.31495000e-02
-0.81599000 5.54104000e-02
-0.78599000 5.85880000e-02
-0.75599000 6.10418000e-02
-0.72599000 6.34514000e-02
-0.69599000 6.88563000e-02
-0.66599000 7.90404000e-02
-0.63599000 9.51700000e-02
-0.60599000 1.12115000e-01
-0.57599000 1.33301000e-01
-0.54599000 1.73055000e-01
-0.51186000 2.59178000e-01
-0.48186000 3.87243000e-01
-0.45186000 5.52559000e-01
-0.42186000 5.45907000e-01
-0.39186000 3.78403000e-01
-0.36186000 2.84509000e-01
-0.33186000 2.70047000e-01
-0.30186000 3.18548000e-01
-0.27186000 4.39746000e-01
-0.24186000 5.87737000e-01
-0.21186000 5.88298000e-01
-0.18186000 4.82484000e-01
-0.15186000 4.03166000e-01
-0.12186000 2.93617000e-01
-0.09186010 2.20173000e-01
-0.06186010 1.90263000e-01
-0.03186010 1.89953000e-01
-0.00186013 2.17104000e-01
0.02813990 2.84200000e-01
0.05813990 4.27062000e-01
0.08813990 6.97716000e-01
0.11814000 9.15030000e-01
0.14814000 7.08778000e-01
0.17814000 4.72066000e-01
0.20814000 3.75077000e-01
0.23814000 3.87858000e-01
0.26814000 5.09794000e-01
0.29814000 6.22419000e-01
0.32814000 4.86612000e-01
0.35814000 3.25254000e-01
0.38814000 2.44182000e-01
0.41814000 1.97034000e-01
0.44814000 1.62007000e-01
0.47814000 1.43941000e-01
0.50814000 1.39228000e-01
0.53814000 1.43098000e-01
0.56814000 1.51425000e-01
0.59814000 1.69182000e-01
0.62814000 2.03698000e-01
0.65814000 2.66816000e-01
0.68814000 3.77803000e-01
0.71814000 5.58526000e-01
0.74814000 8.62174000e-01
0.77814000 1.07785000e+00
