# E(MeV)  S_GAMTGAMT(K=1) for Rn235_DDPCX
-5.32881000 3.92350000e-03
-5.29881000 4.10475000e-03
-5.26881000 4.18597000e-03
-5.23881000 4.05528000e-03
-5.20881000 3.95019000e-03
-5.17881000 3.90725000e-03
-5.14881000 3.89618000e-03
-5.11881000 3.90017000e-03
-5.08881000 3.91186000e-03
-5.05881000 3.92786000e-03
-5.02881000 3.94653000e-03
-4.99881000 3.96698000e-03
-4.96881000 3.98872000e-03
-4.93881000 4.01147000e-03
-4.90881000 4.03506000e-03
-4.87881000 4.05937000e-03
-4.84881000 4.08434000e-03
-4.81881000 4.10994000e-03
-4.78881000 4.13615000e-03
-4.75881000 4.16296000e-03
-4.71471000 4.20348000e-03
-4.68471000 4.23181000e-03
-4.65471000 4.26079000e-03
-4.62471000 4.29045000e-03
-4.59471000 4.32082000e-03
-4.56471000 4.35195000e-03
-4.53471000 4.38387000e-03
-4.50471000 4.41666000e-03
-4.47471000 4.45036000e-03
-4.44471000 4.48506000e-03
-4.41471000 4.52084000e-03
-4.38471000 4.55781000e-03
-4.35471000 4.59608000e-03
-4.32471000 4.63581000e-03
-4.29471000 4.67716000e-03
-4.26471000 4.72036000e-03
-4.23471000 4.76568000e-03
-4.20471000 4.81344000e-03
-4.17471000 4.86409000e-03
-4.14471000 4.91819000e-03
-4.10060000 5.00568000e-03
-4.07060000 5.07223000e-03
-4.04060000 5.14646000e-03
-4.01060000 5.23102000e-03
-3.98060000 5.33004000e-03
-3.95060000 5.45022000e-03
-3.92060000 5.60313000e-03
-3.89060000 5.81002000e-03
-3.86060000 6.11302000e-03
-3.83060000 6.60245000e-03
-3.80060000 7.48301000e-03
-3.77060000 9.16191000e-03
-3.74060000 1.15412000e-02
-3.71060000 1.14433000e-02
-3.68060000 9.23371000e-03
-3.65060000 7.85141000e-03
-3.62060000 7.23582000e-03
-3.59060000 7.00675000e-03
-3.56060000 6.99728000e-03
-3.53060000 7.13547000e-03
-3.48649000 7.27724000e-03
-3.45649000 7.36431000e-03
-3.42649000 7.56256000e-03
-3.39649000 7.87127000e-03
-3.36649000 8.30924000e-03
-3.33649000 8.93360000e-03
-3.30649000 9.82152000e-03
-3.27649000 1.09326000e-02
-3.24649000 1.23997000e-02
-3.21649000 1.47460000e-02
-3.18649000 1.73318000e-02
-3.15649000 2.03218000e-02
-3.12649000 2.57596000e-02
-3.09649000 3.63871000e-02
-3.06649000 5.67422000e-02
-3.03649000 7.54304000e-02
-3.00649000 6.25436000e-02
-2.97649000 4.67770000e-02
-2.94649000 4.47976000e-02
-2.91649000 5.65471000e-02
-2.87238000 7.52645000e-02
-2.84238000 5.49105000e-02
-2.81238000 3.61603000e-02
-2.78238000 2.69175000e-02
-2.75238000 2.30150000e-02
-2.72238000 2.22971000e-02
-2.69238000 2.43619000e-02
-2.66238000 3.03121000e-02
-2.63238000 4.35197000e-02
-2.60238000 6.85582000e-02
-2.57238000 9.06603000e-02
-2.54238000 7.49304000e-02
-2.51238000 4.77708000e-02
-2.48238000 3.26731000e-02
-2.45238000 2.41729000e-02
-2.42238000 1.87355000e-02
-2.39238000 1.55715000e-02
-2.36238000 1.37109000e-02
-2.33238000 1.25914000e-02
-2.30238000 1.19625000e-02
-2.25827000 1.17482000e-02
-2.22827000 1.16255000e-02
-2.19827000 1.11415000e-02
-2.16827000 1.08174000e-02
-2.13827000 1.07340000e-02
-2.10827000 1.08335000e-02
-2.07827000 1.11071000e-02
-2.04827000 1.15874000e-02
-2.01827000 1.23690000e-02
-1.98827000 1.37251000e-02
-1.95827000 1.62678000e-02
-1.92827000 2.11992000e-02
-1.89827000 2.83509000e-02
-1.86827000 2.85859000e-02
-1.83827000 2.26921000e-02
-1.80827000 1.95565000e-02
-1.77827000 1.94059000e-02
-1.74827000 2.18312000e-02
-1.71827000 2.79200000e-02
-1.68827000 4.02771000e-02
-1.64416000 5.86002000e-02
-1.61416000 5.37485000e-02
-1.58416000 4.01973000e-02
-1.55416000 2.93676000e-02
-1.52416000 2.36113000e-02
-1.49416000 1.98380000e-02
-1.46416000 1.77962000e-02
-1.43416000 1.64406000e-02
-1.40416000 1.54838000e-02
-1.37416000 1.50865000e-02
-1.34416000 1.51191000e-02
-1.31416000 1.54055000e-02
-1.28416000 1.58900000e-02
-1.25416000 1.67246000e-02
-1.22416000 1.78513000e-02
-1.19416000 1.97321000e-02
-1.16416000 2.27346000e-02
-1.13416000 2.50401000e-02
-1.10416000 2.67508000e-02
-1.07416000 3.13459000e-02
-1.03006000 4.92595000e-02
-1.00006000 7.39274000e-02
-0.97005500 9.30224000e-02
-0.94005500 7.63269000e-02
-0.91005500 5.69194000e-02
-0.88005500 4.96634000e-02
-0.85005500 4.74422000e-02
-0.82005500 4.63914000e-02
-0.79005500 4.70553000e-02
-0.76005500 5.41589000e-02
-0.73005500 7.14483000e-02
-0.70005500 1.02356000e-01
-0.67005500 1.44664000e-01
-0.64005500 1.90238000e-01
-0.61005500 1.74658000e-01
-0.58005500 1.13485000e-01
-0.55005500 7.47681000e-02
-0.52005500 5.36557000e-02
-0.49005500 4.16877000e-02
-0.46005500 3.51178000e-02
-0.41594700 3.05181000e-02
-0.38594700 2.94147000e-02
-0.35594700 2.95560000e-02
-0.32594700 3.12179000e-02
-0.29594700 3.31079000e-02
-0.26594700 3.17788000e-02
-0.23594700 3.01285000e-02
-0.20594700 3.00382000e-02
-0.17594700 3.13103000e-02
-0.14594700 3.40324000e-02
-0.11594700 3.81177000e-02
-0.08594670 4.30746000e-02
-0.05594670 5.13791000e-02
-0.02594670 6.18833000e-02
0.00405328 7.65628000e-02
0.03405330 1.05689000e-01
0.06405330 1.22381000e-01
0.09405330 9.74656000e-02
0.12405300 7.32811000e-02
0.15405300 6.03265000e-02
0.19816200 5.49154000e-02
0.22816200 5.74548000e-02
0.25816200 6.51298000e-02
0.28816200 7.53379000e-02
0.31816200 7.95626000e-02
0.34816200 8.47875000e-02
0.37816200 9.65806000e-02
0.40816200 1.01434000e-01
0.43816200 9.37418000e-02
0.46816200 9.13354000e-02
0.49816200 9.59878000e-02
0.52816200 1.03164000e-01
0.55816200 1.13550000e-01
0.58816200 1.30765000e-01
0.61816200 1.55558000e-01
0.64816200 1.89959000e-01
0.67816200 2.38224000e-01
0.70816200 2.89368000e-01
0.73816200 3.53622000e-01
0.76816200 4.75663000e-01
