# E(MeV)  S_GAMTGAMT(K=0) for Ta193_DDPCX
-5.30030000 3.23511000e-03
-5.27030000 3.26032000e-03
-5.24030000 3.27742000e-03
-5.21030000 3.29288000e-03
-5.18030000 3.31104000e-03
-5.15030000 3.33094000e-03
-5.12030000 3.35178000e-03
-5.09030000 3.37320000e-03
-5.06030000 3.39501000e-03
-5.03030000 3.41711000e-03
-5.00030000 3.43937000e-03
-4.97030000 3.46167000e-03
-4.94030000 3.48377000e-03
-4.91030000 3.50521000e-03
-4.88030000 3.52505000e-03
-4.85030000 3.54118000e-03
-4.82030000 3.54886000e-03
-4.79030000 3.54250000e-03
-4.76030000 3.54851000e-03
-4.73030000 3.60424000e-03
-4.68904000 3.67820000e-03
-4.65904000 3.71803000e-03
-4.62904000 3.75279000e-03
-4.59904000 3.78548000e-03
-4.56904000 3.81740000e-03
-4.53904000 3.84920000e-03
-4.50904000 3.88119000e-03
-4.47904000 3.91359000e-03
-4.44904000 3.94651000e-03
-4.41904000 3.98005000e-03
-4.38904000 4.01429000e-03
-4.35904000 4.04928000e-03
-4.32904000 4.08509000e-03
-4.29904000 4.12178000e-03
-4.26904000 4.15941000e-03
-4.23904000 4.19806000e-03
-4.20904000 4.23778000e-03
-4.17904000 4.27866000e-03
-4.14904000 4.32077000e-03
-4.11904000 4.36421000e-03
-4.07778000 4.42630000e-03
-4.04778000 4.47331000e-03
-4.01778000 4.52203000e-03
-3.98778000 4.57262000e-03
-3.95778000 4.62523000e-03
-3.92778000 4.68005000e-03
-3.89778000 4.73729000e-03
-3.86778000 4.79721000e-03
-3.83778000 4.86007000e-03
-3.80778000 4.92622000e-03
-3.77778000 4.99603000e-03
-3.74778000 5.06994000e-03
-3.71778000 5.14848000e-03
-3.68778000 5.23228000e-03
-3.65778000 5.32208000e-03
-3.62778000 5.41879000e-03
-3.59778000 5.52350000e-03
-3.56778000 5.63756000e-03
-3.53778000 5.76264000e-03
-3.50778000 5.90082000e-03
-3.46653000 6.11727000e-03
-3.43653000 6.29866000e-03
-3.40653000 6.50565000e-03
-3.37653000 6.74482000e-03
-3.34653000 7.02504000e-03
-3.31653000 7.35862000e-03
-3.28653000 7.76302000e-03
-3.25653000 8.26361000e-03
-3.22653000 8.89851000e-03
-3.19653000 9.72691000e-03
-3.16653000 1.08448000e-02
-3.13653000 1.24153000e-02
-3.10653000 1.47327000e-02
-3.07653000 1.83650000e-02
-3.04653000 2.44964000e-02
-3.01653000 3.57831000e-02
-2.98653000 5.81267000e-02
-2.95653000 9.81286000e-02
-2.92653000 1.21818000e-01
-2.89653000 8.60035000e-02
-2.85527000 4.29250000e-02
-2.82527000 2.92500000e-02
-2.79527000 2.23804000e-02
-2.76527000 1.88413000e-02
-2.73527000 1.71826000e-02
-2.70527000 1.68739000e-02
-2.67527000 1.79481000e-02
-2.64527000 2.10900000e-02
-2.61527000 2.81564000e-02
-2.58527000 4.16175000e-02
-2.55527000 5.14934000e-02
-2.52527000 4.11137000e-02
-2.49527000 3.10148000e-02
-2.46527000 2.72695000e-02
-2.43527000 2.34425000e-02
-2.40527000 1.91354000e-02
-2.37527000 1.60863000e-02
-2.34527000 1.44292000e-02
-2.31527000 1.36403000e-02
-2.28527000 1.33391000e-02
-2.24401000 1.34087000e-02
-2.21401000 1.37175000e-02
-2.18401000 1.42193000e-02
-2.15401000 1.49213000e-02
-2.12401000 1.58518000e-02
-2.09401000 1.70630000e-02
-2.06401000 1.86385000e-02
-2.03401000 2.07092000e-02
-2.00401000 2.34823000e-02
-1.97401000 2.72959000e-02
-1.94401000 3.27262000e-02
-1.91401000 4.08113000e-02
-1.88401000 5.35501000e-02
-1.85401000 7.50999000e-02
-1.82401000 1.14762000e-01
-1.79401000 1.93254000e-01
-1.76401000 3.34953000e-01
-1.73401000 4.24940000e-01
-1.70401000 3.02065000e-01
-1.67401000 1.80149000e-01
-1.63276000 1.12436000e-01
-1.60276000 9.58426000e-02
-1.57276000 7.48690000e-02
-1.54276000 5.77514000e-02
-1.51276000 4.97143000e-02
-1.48276000 4.83670000e-02
-1.45276000 5.33660000e-02
-1.42276000 6.77862000e-02
-1.39276000 1.00258000e-01
-1.36276000 1.60200000e-01
-1.33276000 1.92958000e-01
-1.30276000 1.35967000e-01
-1.27276000 8.25387000e-02
-1.24276000 5.49347000e-02
-1.21276000 4.10653000e-02
-1.18276000 3.38730000e-02
-1.15276000 2.99329000e-02
-1.12276000 2.69901000e-02
-1.09276000 2.52097000e-02
-1.06276000 2.49697000e-02
-1.02150000 2.79831000e-02
-0.99150000 3.45104000e-02
-0.96150000 4.33514000e-02
-0.93150000 4.03673000e-02
-0.90150000 3.05946000e-02
-0.87150000 2.47149000e-02
-0.84150000 2.18117000e-02
-0.81150000 2.03428000e-02
-0.78150000 1.95883000e-02
-0.75150000 1.92292000e-02
-0.72150000 1.91148000e-02
-0.69150000 1.91696000e-02
-0.66150000 1.93545000e-02
-0.63150000 1.96510000e-02
-0.60150000 2.00545000e-02
-0.57150000 2.05738000e-02
-0.54150000 2.12365000e-02
-0.51150000 2.20768000e-02
-0.48150000 2.30009000e-02
-0.45150000 2.39499000e-02
-0.41024300 2.56720000e-02
-0.38024300 2.74127000e-02
-0.35024300 2.98272000e-02
-0.32024300 3.33264000e-02
-0.29024300 3.87514000e-02
-0.26024300 4.79450000e-02
-0.23024300 6.51163000e-02
-0.20024300 9.82451000e-02
-0.17024300 1.40773000e-01
-0.14024300 1.29854000e-01
-0.11024300 8.82611000e-02
-0.08024310 6.37338000e-02
-0.05024310 5.22595000e-02
-0.02024310 4.70396000e-02
0.00975692 4.49404000e-02
0.03975690 4.46223000e-02
0.06975690 4.54948000e-02
0.09975690 4.72921000e-02
0.12975700 5.00810000e-02
0.15975700 5.41816000e-02
0.20101300 6.33656000e-02
0.23101300 7.51474000e-02
0.26101300 9.64226000e-02
0.29101300 1.34728000e-01
0.32101300 1.70617000e-01
0.35101300 1.48355000e-01
0.38101300 1.15550000e-01
0.41101300 1.00451000e-01
0.44101300 9.62602000e-02
0.47101300 9.77203000e-02
0.50101300 1.02619000e-01
0.53101300 1.10143000e-01
0.56101300 1.20095000e-01
0.59101300 1.32658000e-01
0.62101300 1.48386000e-01
0.65101300 1.68169000e-01
0.68101300 1.93425000e-01
0.71101300 2.26530000e-01
0.74101300 2.71744000e-01
0.77101300 3.37210000e-01
