# E(MeV)  S_GAMTGAMT(Total=K0+2*K1) for Tm200_DDPCX
-15.07640000 4.87445000e-03
-15.04640000 4.95826000e-03
-15.01640000 5.01855000e-03
-14.98640000 5.06294000e-03
-14.95640000 5.09174000e-03
-14.92640000 5.09824000e-03
-14.89640000 5.09232000e-03
-14.86640000 5.13994000e-03
-14.83640000 5.21414000e-03
-14.80640000 5.26888000e-03
-14.77640000 5.30920000e-03
-14.74640000 5.34189000e-03
-14.71640000 5.36997000e-03
-14.68640000 5.39653000e-03
-14.65640000 5.42429000e-03
-14.62640000 5.45077000e-03
-14.59640000 5.47529000e-03
-14.56640000 5.49811000e-03
-14.53640000 5.51899000e-03
-14.50640000 5.53684000e-03
-14.47640000 5.54907000e-03
-14.44640000 5.54988000e-03
-14.41640000 5.53622000e-03
-14.38640000 5.54823000e-03
-14.35640000 5.60044000e-03
-14.32640000 5.63933000e-03
-14.29640000 5.66208000e-03
-14.26640000 5.69337000e-03
-14.23640000 5.73081000e-03
-14.20640000 5.76130000e-03
-14.17640000 5.78643000e-03
-14.14640000 5.80831000e-03
-14.11640000 5.82768000e-03
-14.08640000 5.84451000e-03
-14.05640000 5.85809000e-03
-14.02640000 5.86693000e-03
-13.99640000 5.86815000e-03
-13.96640000 5.85605000e-03
-13.93640000 5.81856000e-03
-13.90640000 5.72845000e-03
-13.87640000 5.52839000e-03
-13.84640000 5.19436000e-03
-13.81640000 5.12255000e-03
-13.78640000 5.40159000e-03
-13.75640000 5.53806000e-03
-13.72640000 5.62189000e-03
-13.69640000 5.78442000e-03
-13.66640000 5.86542000e-03
-13.63640000 5.88152000e-03
-13.60640000 5.95749000e-03
-13.57640000 6.03665000e-03
-13.54640000 6.12930000e-03
-13.48750000 6.28455000e-03
-13.45750000 6.33254000e-03
-13.42750000 6.37159000e-03
-13.39750000 6.40592000e-03
-13.36750000 6.43757000e-03
-13.33750000 6.46759000e-03
-13.30750000 6.49656000e-03
-13.27750000 6.52485000e-03
-13.24750000 6.55269000e-03
-13.21750000 6.58021000e-03
-13.18750000 6.60753000e-03
-13.15750000 6.63475000e-03
-13.12750000 6.66187000e-03
-13.09750000 6.68900000e-03
-13.06750000 6.71612000e-03
-13.03750000 6.74330000e-03
-13.00750000 6.77053000e-03
-12.97750000 6.79786000e-03
-12.94750000 6.82527000e-03
-12.91750000 6.85279000e-03
-12.88750000 6.88044000e-03
-12.85750000 6.90825000e-03
-12.82750000 6.93619000e-03
-12.79750000 6.96429000e-03
-12.76750000 6.99257000e-03
-12.73750000 7.02102000e-03
-12.70750000 7.04969000e-03
-12.67750000 7.07856000e-03
-12.64750000 7.10766000e-03
-12.61750000 7.13701000e-03
-12.58750000 7.16665000e-03
-12.55750000 7.19654000e-03
-12.52750000 7.22679000e-03
-12.49750000 7.25738000e-03
-12.46750000 7.28840000e-03
-12.43750000 7.31987000e-03
-12.40750000 7.35191000e-03
-12.37750000 7.38458000e-03
-12.34750000 7.41808000e-03
-12.31750000 7.45261000e-03
-12.28750000 7.48854000e-03
-12.25750000 7.52637000e-03
-12.22750000 7.56702000e-03
-12.19750000 7.61218000e-03
-12.16750000 7.66524000e-03
-12.13750000 7.73319000e-03
-12.10750000 7.82608000e-03
-12.07750000 7.93009000e-03
-12.04750000 8.03329000e-03
-12.01750000 8.14699000e-03
-11.98750000 8.21281000e-03
-11.95750000 8.36097000e-03
-11.89870000 8.74605000e-03
-11.86870000 8.86295000e-03
-11.83870000 9.20620000e-03
-11.80870000 9.19849000e-03
-11.77870000 8.76380000e-03
-11.74870000 8.48096000e-03
-11.71870000 8.35518000e-03
-11.68870000 8.30637000e-03
-11.65870000 8.29495000e-03
-11.62870000 8.30346000e-03
-11.59870000 8.32389000e-03
-11.56870000 8.35236000e-03
-11.53870000 8.38714000e-03
-11.50870000 8.42778000e-03
-11.47870000 8.47493000e-03
-11.44870000 8.53073000e-03
-11.41870000 8.59977000e-03
-11.38870000 8.69102000e-03
-11.35870000 8.81963000e-03
-11.32870000 9.02501000e-03
-11.29870000 9.39935000e-03
-11.26870000 9.93780000e-03
-11.23870000 9.97274000e-03
-11.20870000 9.51865000e-03
-11.17870000 9.23245000e-03
-11.14870000 9.11334000e-03
-11.11870000 9.07544000e-03
-11.08870000 9.07716000e-03
-11.05870000 9.10053000e-03
-11.02870000 9.13764000e-03
-10.99870000 9.18528000e-03
-10.96870000 9.24125000e-03
-10.93870000 9.30105000e-03
-10.90870000 9.36759000e-03
-10.87870000 9.44617000e-03
-10.84870000 9.54124000e-03
-10.81870000 9.66208000e-03
-10.78870000 9.82165000e-03
-10.75870000 9.99930000e-03
-10.72870000 1.01838000e-02
-10.69870000 1.04913900e-02
-10.66870000 1.09613100e-02
-10.63870000 1.12307900e-02
-10.60870000 1.12488100e-02
-10.57870000 1.14927200e-02
-10.54870000 1.20889000e-02
-10.51870000 1.32070800e-02
-10.48870000 1.53143100e-02
-10.45870000 1.93202500e-02
-10.42870000 2.54097800e-02
-10.39870000 2.94795200e-02
-10.36870000 2.63280600e-02
-10.30980000 1.65568800e-02
-10.27980000 1.49879400e-02
-10.24980000 1.43698000e-02
-10.21980000 1.41097300e-02
-10.18980000 1.33903300e-02
-10.15980000 1.27612500e-02
-10.12980000 1.21614700e-02
-10.09980000 1.17817200e-02
-10.06980000 1.16534900e-02
-10.03980000 1.16631900e-02
-10.00980000 1.16977100e-02
-9.97980000 1.18567900e-02
-9.94980000 1.19831200e-02
-9.91980000 1.18323200e-02
-9.88980000 1.17292600e-02
-9.85980000 1.17576900e-02
-9.82980000 1.18849900e-02
-9.79980000 1.21098000e-02
-9.76980000 1.24718000e-02
-9.73980000 1.30623700e-02
-9.70980000 1.39436700e-02
-9.67980000 1.49467600e-02
-9.64980000 1.65326000e-02
-9.61980000 1.96767500e-02
-9.58980000 2.30207200e-02
-9.55980000 2.31789700e-02
-9.52980000 2.44329800e-02
-9.49980000 2.66098700e-02
-9.46980000 2.30303700e-02
-9.43980000 1.87642500e-02
-9.40980000 1.67170800e-02
-9.37980000 1.58618000e-02
-9.34980000 1.53898600e-02
-9.31980000 1.56050800e-02
-9.28980000 1.62818800e-02
-9.25980000 1.59163100e-02
-9.22980000 1.48951200e-02
-9.19980000 1.44618300e-02
-9.16980000 1.45974500e-02
-9.13980000 1.46938000e-02
-9.10980000 1.43933300e-02
-9.07980000 1.40791200e-02
-9.04980000 1.39076800e-02
-9.01980000 1.39581600e-02
-8.98980000 1.42250200e-02
-8.95980000 1.47818300e-02
-8.92980000 1.58634600e-02
-8.89980000 1.76549400e-02
-8.86980000 1.90166800e-02
-8.83980000 1.84873800e-02
-8.80980000 1.77209800e-02
-8.77980000 1.72318500e-02
-8.72093000 1.65565800e-02
-8.69093000 1.59895600e-02
-8.66093000 1.57813900e-02
-8.63093000 1.57366300e-02
-8.60093000 1.60450500e-02
-8.57093000 1.68612800e-02
-8.54093000 1.78851100e-02
-8.51093000 1.90418900e-02
-8.48093000 1.97718700e-02
-8.45093000 1.94580500e-02
-8.42093000 1.90164600e-02
-8.39093000 1.86021800e-02
-8.36093000 1.81819200e-02
-8.33093000 1.80658600e-02
-8.30093000 1.87611600e-02
-8.27093000 1.99101500e-02
-8.24093000 1.96651300e-02
-8.21093000 1.90584100e-02
-8.18093000 1.92769000e-02
-8.15093000 1.95606000e-02
-8.12093000 1.91660500e-02
-8.09093000 1.86584900e-02
-8.06093000 1.86076100e-02
-8.03093000 1.85149400e-02
-8.00093000 1.87706800e-02
-7.97093000 1.94537600e-02
-7.94093000 1.98596600e-02
-7.91093000 1.98157500e-02
-7.88093000 1.96465500e-02
-7.85093000 1.97593800e-02
-7.82093000 2.03967400e-02
-7.79093000 2.12744000e-02
-7.76093000 2.17358600e-02
-7.73093000 2.21480400e-02
-7.70093000 2.29794200e-02
-7.67093000 2.36579000e-02
-7.64093000 2.46680200e-02
-7.61093000 2.66212800e-02
-7.58093000 3.03951600e-02
-7.55093000 3.64720800e-02
-7.52093000 4.41671600e-02
-7.49093000 4.50842200e-02
-7.46093000 3.75936000e-02
-7.43093000 3.23749400e-02
-7.40093000 3.07602200e-02
-7.37093000 3.11166000e-02
-7.34093000 3.30072000e-02
-7.31093000 3.43129300e-02
-7.28093000 3.06895200e-02
-7.25093000 2.73016800e-02
-7.22093000 2.59274000e-02
-7.19093000 2.56562300e-02
-7.13207000 2.50104600e-02
-7.10207000 2.49903600e-02
-7.07207000 2.55340000e-02
-7.04207000 2.62682800e-02
-7.01207000 2.69122400e-02
-6.98207000 2.72787200e-02
-6.95207000 2.80450200e-02
-6.92207000 3.03013000e-02
-6.89207000 3.44945600e-02
-6.86207000 3.82146000e-02
-6.83207000 3.78045000e-02
-6.80207000 3.66956000e-02
-6.77207000 3.74208000e-02
-6.74207000 3.83660000e-02
-6.71207000 4.16842000e-02
-6.68207000 4.80523000e-02
-6.65207000 5.61151000e-02
-6.62207000 5.46733000e-02
-6.59207000 4.78839000e-02
-6.56207000 4.65419000e-02
-6.53207000 4.88089000e-02
-6.50207000 5.46116000e-02
-6.47207000 6.01025000e-02
-6.44207000 5.57050000e-02
-6.41207000 4.96670000e-02
-6.38207000 4.58704000e-02
-6.35207000 4.56181000e-02
-6.32207000 4.78249000e-02
-6.29207000 5.20712000e-02
-6.26207000 6.23923000e-02
-6.23207000 8.09708000e-02
-6.20207000 8.82372000e-02
-6.17207000 7.50937000e-02
-6.14207000 6.86573000e-02
-6.11207000 7.36569000e-02
-6.08207000 8.39876000e-02
-6.05207000 8.98706000e-02
-6.02207000 1.04478800e-01
-5.99207000 1.27335100e-01
-5.96207000 1.22310600e-01
-5.93207000 1.11191300e-01
-5.90207000 1.11958000e-01
-5.87207000 9.74376000e-02
-5.84207000 7.69247000e-02
-5.81207000 6.61003000e-02
-5.78207000 6.28828000e-02
-5.75207000 6.45474000e-02
-5.72207000 6.79623000e-02
-5.69207000 7.36458000e-02
-5.66207000 8.19095000e-02
-5.63207000 8.19128000e-02
-5.60207000 7.23939000e-02
-5.54320000 6.48591000e-02
-5.51320000 6.64569000e-02
-5.48320000 7.09456000e-02
-5.45320000 7.89343000e-02
-5.42320000 8.76992000e-02
-5.39320000 9.43259000e-02
-5.36320000 1.02987300e-01
-5.33320000 1.13653900e-01
-5.30320000 1.32262600e-01
-5.27320000 1.40677800e-01
-5.24320000 1.34531900e-01
-5.21320000 1.37251100e-01
-5.18320000 1.52063600e-01
-5.15320000 1.79621400e-01
-5.12320000 2.26048200e-01
-5.09320000 3.04372000e-01
-5.06320000 4.36801000e-01
-5.03320000 6.84840000e-01
-5.00320000 1.12929920e+00
-4.97320000 1.54851560e+00
-4.94320000 1.23096360e+00
-4.91320000 7.51283600e-01
-4.88320000 4.94178600e-01
-4.85320000 3.60227600e-01
-4.82320000 2.91697400e-01
-4.79320000 2.66034400e-01
-4.76320000 2.72469600e-01
-4.73320000 2.99703400e-01
-4.70320000 3.10366400e-01
-4.67320000 2.98487600e-01
-4.64320000 2.97517200e-01
-4.61320000 3.28677600e-01
-4.58320000 3.92286600e-01
-4.55320000 4.75152000e-01
-4.52320000 5.70396000e-01
-4.49320000 7.29388000e-01
-4.46320000 1.07178800e+00
-4.43320000 1.73545200e+00
-4.40320000 2.47448600e+00
-4.37320000 2.43817600e+00
-4.34320000 1.78819500e+00
-4.31320000 1.33669000e+00
-4.28320000 1.27884400e+00
-4.25320000 1.56817400e+00
-4.22320000 1.69676000e+00
-4.19320000 1.30173600e+00
-4.16320000 1.03810700e+00
-4.13320000 1.06440100e+00
-4.10320000 1.27915800e+00
-4.07320000 1.34641900e+00
-4.04320000 1.09826800e+00
-4.01320000 8.90296000e-01
-3.95433000 1.13711200e+00
-3.92433000 1.47870800e+00
-3.89433000 1.50175700e+00
-3.86433000 1.42504300e+00
-3.83433000 1.24658300e+00
-3.80433000 1.06140100e+00
-3.77433000 9.04216000e-01
-3.74433000 8.18268000e-01
-3.71433000 8.18885000e-01
-3.68433000 9.21363000e-01
-3.65433000 1.12233700e+00
-3.62433000 1.39894800e+00
-3.59433000 1.78546700e+00
-3.56433000 2.47643500e+00
-3.53433000 3.17784100e+00
-3.50433000 3.61175000e+00
-3.47433000 3.61995000e+00
-3.44433000 3.33476000e+00
-3.41433000 3.18148000e+00
-3.38433000 3.00876800e+00
-3.35433000 2.60395100e+00
-3.32433000 2.34632200e+00
-3.29433000 2.26321200e+00
-3.26433000 2.06716700e+00
-3.23433000 2.15698800e+00
-3.20433000 2.63834800e+00
-3.17433000 2.73264200e+00
-3.14433000 2.48632400e+00
-3.11433000 2.51796400e+00
-3.08433000 2.52284300e+00
-3.05433000 2.57730900e+00
-3.02433000 3.12928500e+00
-2.99433000 4.45641600e+00
-2.96433000 6.89012100e+00
-2.93433000 9.53574000e+00
-2.90433000 1.00527100e+01
-2.87433000 8.72080000e+00
-2.84433000 6.16372000e+00
-2.81433000 4.33875400e+00
-2.78433000 3.34607200e+00
-2.75433000 3.13382800e+00
-2.72433000 3.21581200e+00
-2.69433000 2.84466800e+00
-2.66433000 2.36336300e+00
-2.63433000 2.28898400e+00
-2.60433000 2.58455500e+00
-2.57433000 3.28942400e+00
-2.54433000 4.93674300e+00
-2.51433000 7.78733300e+00
-2.48433000 9.17813300e+00
-2.45433000 7.24539300e+00
-2.42433000 4.44344000e+00
-2.36546000 1.88374200e+00
-2.33546000 1.39846100e+00
-2.30546000 1.11719200e+00
-2.27546000 9.58934000e-01
-2.24546000 8.94152000e-01
-2.21546000 9.27962000e-01
-2.18546000 1.05086800e+00
-2.15546000 1.16934200e+00
-2.12546000 1.17118500e+00
-2.09546000 1.25751200e+00
-2.06546000 1.32989600e+00
-2.03546000 1.30475300e+00
-2.00546000 1.40707400e+00
-1.97546000 1.65256000e+00
-1.94546000 1.76221300e+00
-1.91546000 2.04477800e+00
-1.88546000 2.94286500e+00
-1.85546000 4.84414300e+00
-1.82546000 6.67794800e+00
-1.79546000 5.23535630e+00
-1.76546000 3.07782140e+00
-1.73546000 1.87350540e+00
-1.70546000 1.27001730e+00
-1.67546000 9.60834000e-01
-1.64546000 7.89854000e-01
-1.61546000 6.62349000e-01
-1.58546000 5.72962000e-01
-1.55546000 5.47727000e-01
-1.52546000 5.89686000e-01
-1.49546000 6.86099000e-01
-1.46546000 7.56162000e-01
-1.43546000 6.57599000e-01
-1.40546000 5.40215000e-01
-1.37546000 5.21101000e-01
-1.34546000 5.86191000e-01
-1.31546000 6.45224000e-01
-1.28546000 6.14828000e-01
-1.25546000 6.39584000e-01
-1.22546000 8.06994000e-01
-1.19546000 9.70543000e-01
-1.16546000 8.59304000e-01
-1.13546000 6.08024000e-01
-1.10546000 4.65743000e-01
-1.07546000 4.33409000e-01
-1.04546000 4.69481000e-01
-1.01546000 4.92654000e-01
-0.98546500 4.89052000e-01
-0.95546500 4.84169000e-01
-0.92546500 4.46831000e-01
-0.89546500 4.10859000e-01
-0.86546500 3.64665000e-01
-0.83546500 3.37151000e-01
-0.77659700 3.69005000e-01
-0.74659700 4.35893000e-01
-0.71659700 5.56467000e-01
-0.68659700 7.82006000e-01
-0.65659700 1.13322700e+00
-0.62659700 1.49300000e+00
-0.59659700 1.64044600e+00
-0.56659700 1.36614600e+00
-0.53659700 1.09543700e+00
-0.50659700 9.35864000e-01
-0.47659700 8.43221000e-01
-0.44659700 8.60758000e-01
-0.41659700 8.13741000e-01
-0.38659700 6.78474000e-01
-0.35659700 5.70701000e-01
-0.32659700 4.70834000e-01
-0.29659700 3.92291000e-01
-0.26659700 3.54103000e-01
-0.23659700 3.38344900e-01
-0.20659700 3.13849500e-01
-0.17659700 2.86473900e-01
-0.14659700 2.79366100e-01
-0.11659700 2.93877700e-01
-0.08659740 3.21925000e-01
-0.05659740 3.37526800e-01
-0.02659740 3.27736200e-01
0.00340259 3.12449300e-01
0.03340260 3.12403200e-01
0.06340260 3.43004000e-01
0.09340260 4.14682600e-01
0.12340300 4.35701600e-01
0.15340300 3.85507000e-01
0.18340300 3.75437000e-01
0.21340300 4.20946600e-01
0.24340300 4.64087000e-01
0.27340300 3.92667600e-01
0.30340300 3.18781600e-01
0.33340300 2.90120200e-01
0.36340300 2.91595400e-01
0.39340300 3.01632200e-01
0.42340300 3.17798200e-01
0.45340300 3.56275000e-01
0.48340300 4.21674000e-01
0.51340300 5.08987000e-01
0.54340300 6.52520000e-01
0.57340300 8.59792000e-01
0.60340300 1.06774600e+00
0.63340300 1.40026600e+00
0.66340300 1.74736200e+00
0.69340300 2.01659600e+00
0.72340300 2.46277800e+00
0.75340300 2.91951000e+00
