# E(MeV)  S_NSDRNSDR(K=0) for Tm220_DDPCX
-19.82750000 1.08900000e-02
-19.79750000 1.91887000e-02
-19.76750000 2.65165000e-02
-19.73750000 3.30503000e-02
-19.70750000 3.89298000e-02
-19.67750000 4.42664000e-02
-19.64750000 4.91502000e-02
-19.61750000 5.36547000e-02
-19.58750000 5.78404000e-02
-19.55750000 6.17576000e-02
-19.52750000 6.54487000e-02
-19.49750000 6.89496000e-02
-19.46750000 7.22907000e-02
-19.43750000 7.54986000e-02
-19.40750000 7.85961000e-02
-19.37750000 8.16033000e-02
-19.34750000 8.45381000e-02
-19.31750000 8.74162000e-02
-19.28750000 9.02519000e-02
-19.25750000 9.30582000e-02
-19.22750000 9.58468000e-02
-19.19750000 9.86286000e-02
-19.16750000 1.01414000e-01
-19.13750000 1.04211000e-01
-19.10750000 1.07030000e-01
-19.07750000 1.09877000e-01
-19.04750000 1.12761000e-01
-19.01750000 1.15687000e-01
-18.98750000 1.18661000e-01
-18.95750000 1.21686000e-01
-18.92750000 1.24764000e-01
-18.89750000 1.27892000e-01
-18.86750000 1.31065000e-01
-18.83750000 1.34269000e-01
-18.80750000 1.37476000e-01
-18.77750000 1.40642000e-01
-18.74750000 1.43683000e-01
-18.71750000 1.46454000e-01
-18.68750000 1.48678000e-01
-18.65750000 1.49810000e-01
-18.62750000 1.48688000e-01
-18.59750000 1.42679000e-01
-18.56750000 1.26261000e-01
-18.53750000 9.76796000e-02
-18.50750000 9.71776000e-02
-18.47750000 1.33596000e-01
-18.44750000 1.60196000e-01
-18.41750000 1.74115000e-01
-18.38750000 1.80591000e-01
-18.35750000 1.81505000e-01
-18.32750000 1.76306000e-01
-18.29750000 1.62380000e-01
-18.26750000 1.34202000e-01
-18.23750000 8.07675000e-02
-18.20750000 -2.07691000e-02
-18.17750000 -2.20943000e-01
-18.14750000 -6.33846000e-01
-18.11750000 -1.43916000e+00
-18.08750000 -2.25712000e+00
-18.05750000 -2.02656000e+00
-18.02750000 -1.44884000e+00
-17.99750000 -5.87331000e-01
-17.96750000 1.00028000e-01
-17.93750000 5.44282000e-01
-17.90750000 8.85644000e-01
-17.87750000 1.21221000e+00
-17.84750000 1.58121000e+00
-17.81750000 2.04802000e+00
-17.76350000 3.41017000e+00
-17.73350000 4.76629000e+00
-17.70350000 7.05776000e+00
-17.67350000 1.12748000e+01
-17.64350000 1.93407000e+01
-17.61350000 3.11099000e+01
-17.58350000 3.79166000e+01
-17.55350000 4.03095000e+01
-17.52350000 2.99089000e+01
-17.49350000 1.71903000e+01
-17.46350000 1.01483000e+01
-17.43350000 6.52847000e+00
-17.40350000 4.52872000e+00
-17.37350000 3.33269000e+00
-17.34350000 2.57012000e+00
-17.31350000 2.06100000e+00
-17.28350000 1.71233000e+00
-17.25350000 1.47571000e+00
-17.22350000 1.33104000e+00
-17.19350000 1.28581000e+00
-17.16350000 1.38534000e+00
-17.13350000 1.64188000e+00
-17.10350000 1.62186000e+00
-17.07350000 1.20714000e+00
-17.04350000 8.98740000e-01
-17.01350000 7.25149000e-01
-16.98350000 6.20381000e-01
-16.95350000 5.50376000e-01
-16.92350000 4.99758000e-01
-16.89350000 4.61091000e-01
-16.86350000 4.30425000e-01
-16.83350000 4.05468000e-01
-16.80350000 3.84793000e-01
-16.77350000 3.67451000e-01
-16.74350000 3.52784000e-01
-16.71350000 3.40313000e-01
-16.68350000 3.29685000e-01
-16.65350000 3.20625000e-01
-16.62350000 3.12924000e-01
-16.59350000 3.06414000e-01
-16.56350000 3.00962000e-01
-16.53350000 2.96462000e-01
-16.50350000 2.92830000e-01
-16.47350000 2.89997000e-01
-16.44350000 2.87911000e-01
-16.41350000 2.86531000e-01
-16.38350000 2.85829000e-01
-16.35350000 2.85785000e-01
-16.32350000 2.86388000e-01
-16.29350000 2.87640000e-01
-16.26350000 2.89547000e-01
-16.23350000 2.92129000e-01
-16.20350000 2.95411000e-01
-16.17350000 2.99433000e-01
-16.14350000 3.04244000e-01
-16.11350000 3.09911000e-01
-16.08350000 3.16512000e-01
-16.05350000 3.24147000e-01
-16.02350000 3.32939000e-01
-15.99350000 3.43039000e-01
-15.96350000 3.54633000e-01
-15.93350000 3.67950000e-01
-15.90350000 3.83274000e-01
-15.87350000 4.00963000e-01
-15.84350000 4.21463000e-01
-15.81350000 4.45348000e-01
-15.78350000 4.73350000e-01
-15.75350000 5.06430000e-01
-15.69950000 5.83051000e-01
-15.66950000 6.38614000e-01
-15.63950000 7.07122000e-01
-15.60950000 7.93007000e-01
-15.57950000 9.02871000e-01
-15.54950000 1.04698000e+00
-15.51950000 1.24219000e+00
-15.48950000 1.51811000e+00
-15.45950000 1.92982000e+00
-15.42950000 2.56598000e+00
-15.39950000 3.44369000e+00
-15.36950000 4.58777000e+00
-15.33950000 6.53001000e+00
-15.30950000 1.04231000e+01
-15.27950000 1.81012000e+01
-15.24950000 2.69799000e+01
-15.21950000 2.51763000e+01
-15.18950000 2.01992000e+01
-15.15950000 1.43303000e+01
-15.12950000 8.60213000e+00
-15.09950000 5.34722000e+00
-15.06950000 3.61347000e+00
-15.03950000 2.62183000e+00
-15.00950000 2.00926000e+00
-14.97950000 1.60636000e+00
-14.94950000 1.32804000e+00
-14.91950000 1.12821000e+00
-14.88950000 9.80270000e-01
-14.85950000 8.68025000e-01
-14.82950000 7.81167000e-01
-14.79950000 7.12894000e-01
-14.76950000 6.58576000e-01
-14.73950000 6.14989000e-01
-14.70950000 5.79850000e-01
-14.67950000 5.51541000e-01
-14.64950000 5.28929000e-01
-14.61950000 5.11232000e-01
-14.58950000 4.97330000e-01
-14.55950000 4.86121000e-01
-14.52950000 4.78430000e-01
-14.49950000 4.74661000e-01
-14.46950000 4.75206000e-01
-14.43950000 4.81204000e-01
-14.40950000 4.95239000e-01
-14.37950000 5.23036000e-01
-14.34950000 5.77527000e-01
-14.31950000 6.82517000e-01
-14.28950000 8.17769000e-01
-14.25950000 8.28834000e-01
-14.22950000 8.22718000e-01
-14.19950000 9.09482000e-01
-14.16950000 8.86262000e-01
-14.13950000 7.51516000e-01
-14.10950000 6.80327000e-01
-14.07950000 6.71370000e-01
-14.04950000 7.07949000e-01
-14.01950000 7.94084000e-01
-13.98950000 9.32843000e-01
-13.95950000 1.06600000e+00
-13.92950000 1.24742000e+00
-13.89950000 1.64530000e+00
-13.86950000 2.48135000e+00
-13.83950000 4.10345000e+00
-13.80950000 5.67904000e+00
-13.77950000 4.51964000e+00
-13.74950000 2.74690000e+00
-13.71950000 1.78142000e+00
-13.68950000 1.31204000e+00
-13.63560000 9.75719000e-01
-13.60560000 8.68508000e-01
-13.57560000 8.02459000e-01
-13.54560000 7.63927000e-01
-13.51560000 7.26173000e-01
-13.48560000 7.03474000e-01
-13.45560000 6.98636000e-01
-13.42560000 7.07906000e-01
-13.39560000 7.30617000e-01
-13.36560000 7.66023000e-01
-13.33560000 8.05194000e-01
-13.30560000 8.55004000e-01
-13.27560000 9.31043000e-01
-13.24560000 1.04474000e+00
-13.21560000 1.21610000e+00
-13.18560000 1.48682000e+00
-13.15560000 1.94614000e+00
-13.12560000 2.79117000e+00
-13.09560000 4.44048000e+00
-13.06560000 7.35704000e+00
-13.03560000 9.29668000e+00
-13.00560000 6.82768000e+00
-12.97560000 4.32306000e+00
-12.94560000 3.02153000e+00
-12.91560000 2.18257000e+00
-12.88560000 1.67365000e+00
-12.85560000 1.38829000e+00
-12.82560000 1.22260000e+00
-12.79560000 1.12286000e+00
-12.76560000 1.06265000e+00
-12.73560000 1.02842000e+00
-12.70560000 1.01341000e+00
-12.67560000 1.01549000e+00
-12.64560000 1.03665000e+00
-12.61560000 1.08045000e+00
-12.58560000 1.13593000e+00
-12.55560000 1.13522000e+00
-12.52560000 1.10984000e+00
-12.49560000 1.10934000e+00
-12.46560000 1.12847000e+00
-12.43560000 1.16067000e+00
-12.40560000 1.20456000e+00
-12.37560000 1.26310000e+00
-12.34560000 1.34563000e+00
-12.31560000 1.47051000e+00
-12.28560000 1.62220000e+00
-12.25560000 1.66320000e+00
-12.22560000 1.64654000e+00
-12.19560000 1.66625000e+00
-12.16560000 1.72086000e+00
-12.13560000 1.80849000e+00
-12.10560000 1.92990000e+00
-12.07560000 2.08554000e+00
-12.04560000 2.22949000e+00
-12.01560000 2.34954000e+00
-11.98560000 2.50254000e+00
-11.95560000 2.70240000e+00
-11.92560000 2.95246000e+00
-11.89560000 3.26176000e+00
-11.86560000 3.64804000e+00
-11.83560000 4.14108000e+00
-11.80560000 4.79090000e+00
-11.77560000 5.68573000e+00
-11.74560000 6.99203000e+00
-11.71560000 9.03810000e+00
-11.68560000 1.24956000e+01
-11.65560000 1.88139000e+01
-11.62560000 2.88759000e+01
-11.57160000 3.02681000e+01
-11.54160000 2.36768000e+01
-11.51160000 2.23420000e+01
-11.48160000 2.55835000e+01
-11.45160000 3.40780000e+01
-11.42160000 5.16876000e+01
-11.39160000 8.72986000e+01
-11.36160000 1.42541000e+02
-11.33160000 1.53831000e+02
-11.30160000 1.14280000e+02
-11.27160000 9.59552000e+01
-11.24160000 7.93584000e+01
-11.21160000 5.23347000e+01
-11.18160000 3.54750000e+01
-11.15160000 2.76487000e+01
-11.12160000 2.38508000e+01
-11.09160000 2.23079000e+01
-11.06160000 2.39480000e+01
-11.03160000 2.99399000e+01
-11.00160000 4.05460000e+01
-10.97160000 5.02943000e+01
-10.94160000 5.88757000e+01
-10.91160000 8.02094000e+01
-10.88160000 1.13189000e+02
-10.85160000 1.02531000e+02
-10.82160000 6.47997000e+01
-10.79160000 4.32635000e+01
-10.76160000 3.58581000e+01
-10.73160000 3.85514000e+01
-10.70160000 4.71709000e+01
-10.67160000 4.23844000e+01
-10.64160000 2.80244000e+01
-10.61160000 1.90569000e+01
-10.58160000 1.45261000e+01
-10.55160000 1.21545000e+01
-10.52160000 1.07496000e+01
-10.49160000 9.98713000e+00
-10.46160000 9.72797000e+00
-10.43160000 9.87878000e+00
-10.40160000 1.04374000e+01
-10.37160000 1.14675000e+01
-10.34160000 1.29920000e+01
-10.31160000 1.52365000e+01
-10.28160000 1.90594000e+01
-10.25160000 2.59956000e+01
-10.22160000 3.90141000e+01
-10.19160000 5.82615000e+01
-10.16160000 6.45947000e+01
-10.13160000 5.99854000e+01
-10.10160000 6.30749000e+01
-10.07160000 8.20274000e+01
-10.04160000 1.20609000e+02
-10.01160000 1.48562000e+02
-9.98158000 1.46591000e+02
-9.95158000 1.41078000e+02
-9.92158000 1.13099000e+02
-9.89158000 7.61668000e+01
-9.86158000 5.71576000e+01
-9.83158000 5.00038000e+01
-9.80158000 5.14508000e+01
-9.77158000 6.05395000e+01
-9.74158000 8.25688000e+01
-9.71158000 1.21621000e+02
-9.68158000 1.63851000e+02
-9.65158000 1.55945000e+02
-9.62158000 1.25703000e+02
-9.59158000 1.06547000e+02
-9.56158000 8.23162000e+01
-9.50761000 6.31472000e+01
-9.47761000 6.23136000e+01
-9.44761000 7.18383000e+01
-9.41761000 9.83237000e+01
-9.38761000 1.57572000e+02
-9.35761000 2.56966000e+02
-9.32761000 2.85802000e+02
-9.29761000 2.08411000e+02
-9.26761000 1.58082000e+02
-9.23761000 1.17612000e+02
-9.20761000 7.75100000e+01
-9.17761000 5.45789000e+01
-9.14761000 4.30961000e+01
-9.11761000 3.80534000e+01
-9.08761000 3.82399000e+01
-9.05761000 4.33359000e+01
-9.02761000 5.65446000e+01
-8.99761000 8.51801000e+01
-8.96761000 1.26136000e+02
-8.93761000 1.40206000e+02
-8.90761000 1.03500000e+02
-8.87761000 7.16978000e+01
-8.84761000 6.10124000e+01
-8.81761000 5.59609000e+01
-8.78761000 4.22605000e+01
-8.75761000 2.98367000e+01
-8.72761000 2.30650000e+01
-8.69761000 1.81083000e+01
-8.66761000 1.48878000e+01
-8.63761000 1.34876000e+01
-8.60761000 1.21958000e+01
-8.57761000 1.05831000e+01
-8.54761000 9.75242000e+00
-8.51761000 9.76538000e+00
-8.48761000 1.07652000e+01
-8.45761000 1.29620000e+01
-8.42761000 1.48588000e+01
-8.39761000 1.50794000e+01
-8.36761000 1.69382000e+01
-8.33761000 2.28429000e+01
-8.30761000 3.54000000e+01
-8.27761000 5.37896000e+01
-8.24761000 6.66678000e+01
-8.21761000 5.79505000e+01
-8.18761000 3.60257000e+01
-8.15761000 2.18755000e+01
-8.12761000 1.48314000e+01
-8.09761000 1.12649000e+01
-8.06761000 9.15473000e+00
-8.03761000 7.89778000e+00
-8.00761000 7.27575000e+00
-7.97761000 6.42258000e+00
-7.94761000 5.66948000e+00
-7.91761000 5.32470000e+00
-7.88761000 5.39041000e+00
-7.85761000 5.86994000e+00
-7.82761000 6.80902000e+00
-7.79761000 7.30587000e+00
-7.76761000 7.23560000e+00
-7.73761000 8.10787000e+00
-7.70761000 1.07032000e+01
-7.67761000 1.63937000e+01
-7.64761000 2.64237000e+01
-7.61761000 3.12137000e+01
-7.58761000 2.28019000e+01
-7.55761000 1.56911000e+01
-7.52761000 1.37560000e+01
-7.49761000 1.54935000e+01
-7.44363000 1.33511000e+01
-7.41363000 1.23468000e+01
-7.38363000 1.29132000e+01
-7.35363000 1.04940000e+01
-7.32363000 7.70058000e+00
-7.29363000 6.17591000e+00
-7.26363000 5.05588000e+00
-7.23363000 4.39337000e+00
-7.20363000 4.09146000e+00
-7.17363000 4.14811000e+00
-7.14363000 4.09900000e+00
-7.11363000 3.84741000e+00
-7.08363000 3.89157000e+00
-7.05363000 4.33460000e+00
-7.02363000 5.31650000e+00
-6.99363000 7.20857000e+00
-6.96363000 1.05929000e+01
-6.93363000 1.40472000e+01
-6.90363000 1.41605000e+01
-6.87363000 1.57598000e+01
-6.84363000 2.29493000e+01
-6.81363000 3.65515000e+01
-6.78363000 4.02370000e+01
-6.75363000 2.64223000e+01
-6.72363000 1.58777000e+01
-6.69363000 1.03142000e+01
-6.66363000 7.26968000e+00
-6.63363000 5.58240000e+00
-6.60363000 4.75102000e+00
-6.57363000 4.44317000e+00
-6.54363000 4.17303000e+00
-6.51363000 3.51085000e+00
-6.48363000 3.07504000e+00
-6.45363000 3.03739000e+00
-6.42363000 3.40635000e+00
-6.39363000 4.36795000e+00
-6.36363000 5.46693000e+00
-6.33363000 4.90643000e+00
-6.30363000 3.70902000e+00
-6.27363000 2.91558000e+00
-6.24363000 2.46731000e+00
-6.21363000 2.21146000e+00
-6.18363000 2.14202000e+00
-6.15363000 2.26040000e+00
-6.12363000 2.62085000e+00
-6.09363000 3.39027000e+00
-6.06363000 4.65181000e+00
-6.03363000 5.20249000e+00
-6.00363000 4.86844000e+00
-5.97363000 5.30170000e+00
-5.94363000 6.75881000e+00
-5.91363000 8.32579000e+00
-5.88363000 8.03900000e+00
-5.85363000 8.05531000e+00
-5.82363000 9.96081000e+00
-5.79363000 1.40467000e+01
-5.76363000 1.49424000e+01
-5.73363000 1.16966000e+01
-5.70363000 1.03077000e+01
-5.67363000 9.92542000e+00
-5.64363000 1.11184000e+01
-5.61363000 1.40593000e+01
-5.58363000 1.56826000e+01
-5.55363000 1.28929000e+01
-5.52363000 8.65593000e+00
-5.49363000 6.17830000e+00
-5.46363000 5.30916000e+00
-5.43363000 5.71488000e+00
-5.37966000 5.55887000e+00
-5.34966000 4.38466000e+00
-5.31966000 3.59118000e+00
-5.28966000 3.02533000e+00
-5.25966000 2.69004000e+00
-5.22966000 2.43110000e+00
-5.19966000 2.39685000e+00
-5.16966000 2.64889000e+00
-5.13966000 3.10177000e+00
-5.10966000 3.58290000e+00
-5.07966000 4.42554000e+00
-5.04966000 6.27092000e+00
-5.01966000 9.40657000e+00
-4.98966000 1.24568000e+01
-4.95966000 1.27262000e+01
-4.92966000 1.26464000e+01
-4.89966000 1.18969000e+01
-4.86966000 8.62744000e+00
-4.83966000 6.30272000e+00
-4.80966000 5.90714000e+00
-4.77966000 6.23787000e+00
-4.74966000 5.18564000e+00
-4.71966000 4.14439000e+00
-4.68966000 3.94175000e+00
-4.65966000 4.33504000e+00
-4.62966000 4.28425000e+00
-4.59966000 3.20110000e+00
-4.56966000 2.46665000e+00
-4.53966000 2.21809000e+00
-4.50966000 2.33014000e+00
-4.47966000 2.94377000e+00
-4.44966000 4.28518000e+00
-4.41966000 5.24759000e+00
-4.38966000 4.13077000e+00
-4.35966000 2.82546000e+00
-4.32966000 1.96133000e+00
-4.29966000 1.44845000e+00
-4.26966000 1.16408000e+00
-4.23966000 1.01241000e+00
-4.20966000 9.41679000e-01
-4.17966000 9.27815000e-01
-4.14966000 9.48351000e-01
-4.11966000 9.89293000e-01
-4.08966000 1.11777000e+00
-4.05966000 1.42179000e+00
-4.02966000 2.01175000e+00
-3.99966000 2.74620000e+00
-3.96966000 2.83862000e+00
-3.93966000 2.07519000e+00
-3.90966000 1.56188000e+00
-3.87966000 1.40982000e+00
-3.84966000 1.38933000e+00
-3.81966000 1.26255000e+00
-3.78966000 1.07292000e+00
-3.75966000 1.01464000e+00
-3.72966000 1.08040000e+00
-3.69966000 1.21339000e+00
-3.66966000 1.37318000e+00
-3.63966000 1.43284000e+00
-3.60966000 1.36335000e+00
-3.57966000 1.40404000e+00
-3.54966000 1.61649000e+00
-3.51966000 1.53073000e+00
-3.48966000 1.27916000e+00
-3.45966000 1.26363000e+00
-3.42966000 1.41059000e+00
-3.39966000 1.34704000e+00
-3.36966000 1.14840000e+00
-3.31568000 1.11674000e+00
-3.28568000 1.29288000e+00
-3.25568000 1.74223000e+00
-3.22568000 2.59521000e+00
-3.19568000 3.13807000e+00
-3.16568000 2.58303000e+00
-3.13568000 1.94027000e+00
-3.10568000 1.74939000e+00
-3.07568000 1.94489000e+00
-3.04568000 2.30478000e+00
-3.01568000 2.73537000e+00
-2.98568000 2.64112000e+00
-2.95568000 2.14711000e+00
-2.92568000 1.93917000e+00
-2.89568000 1.98171000e+00
-2.86568000 2.26555000e+00
-2.83568000 2.83076000e+00
-2.80568000 3.35931000e+00
-2.77568000 3.33358000e+00
-2.74568000 2.61996000e+00
-2.71568000 2.10181000e+00
-2.68568000 1.72780000e+00
-2.65568000 1.63515000e+00
-2.62568000 1.74557000e+00
-2.59568000 1.53469000e+00
-2.56568000 1.12949000e+00
-2.53568000 8.73603000e-01
-2.50568000 7.20518000e-01
-2.47568000 6.45494000e-01
-2.44568000 6.42303000e-01
-2.41568000 6.55216000e-01
-2.38568000 6.25824000e-01
-2.35568000 5.70753000e-01
-2.32568000 4.97798000e-01
-2.29568000 4.49416000e-01
-2.26568000 4.28450000e-01
-2.23568000 4.27758000e-01
-2.20568000 4.46705000e-01
-2.17568000 4.91185000e-01
-2.14568000 5.74964000e-01
-2.11568000 6.87170000e-01
-2.08568000 6.79008000e-01
-2.05568000 5.91484000e-01
-2.02568000 5.58495000e-01
-1.99568000 5.84234000e-01
-1.96568000 6.62209000e-01
-1.93568000 8.11804000e-01
-1.90568000 1.06619000e+00
-1.87568000 1.53371000e+00
-1.84568000 2.19163000e+00
-1.81568000 2.61759000e+00
-1.78568000 2.56023000e+00
-1.75568000 2.26005000e+00
-1.72568000 1.82713000e+00
-1.69568000 1.40340000e+00
-1.66568000 1.18954000e+00
-1.63568000 1.02899000e+00
-1.60568000 9.15812000e-01
-1.57568000 9.58166000e-01
-1.54568000 1.13911000e+00
-1.51568000 1.23311000e+00
-1.48568000 1.25948000e+00
-1.45568000 1.25385000e+00
-1.42568000 1.03395000e+00
-1.39568000 8.23845000e-01
-1.36568000 6.76425000e-01
-1.33568000 6.18092000e-01
-1.30568000 6.20945000e-01
-1.25171000 5.53507000e-01
-1.22171000 5.61382000e-01
-1.19171000 6.40956000e-01
-1.16171000 7.96295000e-01
-1.13171000 9.31356000e-01
-1.10171000 1.05210000e+00
-1.07171000 1.01276000e+00
-1.04171000 8.43615000e-01
-1.01171000 7.50473000e-01
-0.98170600 6.96864000e-01
-0.95170600 6.68168000e-01
-0.92170600 6.90515000e-01
-0.89170600 7.19010000e-01
-0.86170600 8.32158000e-01
-0.83170600 1.08030000e+00
-0.80170600 1.17095000e+00
-0.77170600 9.99429000e-01
-0.74170600 8.70339000e-01
-0.71170600 7.82223000e-01
-0.68170600 7.25513000e-01
-0.65170600 7.51278000e-01
-0.62170600 7.94820000e-01
-0.59170600 8.50966000e-01
-0.56170600 1.03324000e+00
-0.53170600 1.42929000e+00
-0.50170600 1.94451000e+00
-0.47170600 2.32290000e+00
-0.44170600 2.28287000e+00
-0.41170600 1.93985000e+00
-0.38170600 1.92232000e+00
-0.35170600 2.03018000e+00
-0.32170600 2.21291000e+00
-0.29170600 2.27358000e+00
-0.26170600 2.09763000e+00
-0.23170600 1.92466000e+00
-0.20170600 1.67292000e+00
-0.17170600 1.50807000e+00
-0.14170600 1.63415000e+00
-0.11170600 2.04966000e+00
-0.08170570 2.66464000e+00
-0.05170570 3.52420000e+00
-0.02170570 3.82163000e+00
0.00829426 2.83424000e+00
0.03829430 2.00906000e+00
0.06829430 1.57445000e+00
0.09829430 1.35712000e+00
0.12829400 1.31015000e+00
0.15829400 1.18837000e+00
0.18829400 9.50634000e-01
0.21829400 7.89069000e-01
0.24829400 7.01333000e-01
0.27829400 6.26450000e-01
0.30829400 5.76348000e-01
0.33829400 5.60765000e-01
0.36829400 5.49767000e-01
0.39829400 5.54397000e-01
0.42829400 6.09936000e-01
0.45829400 7.10695000e-01
0.48829400 8.08757000e-01
0.51829400 9.62205000e-01
0.54829400 9.88145000e-01
0.57829400 8.65630000e-01
0.60829400 8.43114000e-01
0.63829400 8.36978000e-01
0.66829400 9.00724000e-01
0.69829400 1.16903000e+00
0.72829400 1.47577000e+00
0.75829400 1.25341000e+00
