# E(MeV)  S_GAMTGAMT(K=0) for Zn99_DDPCX
-22.39870000 1.59509000e-03
-22.36870000 1.60159000e-03
-22.33870000 1.60813000e-03
-22.30870000 1.61473000e-03
-22.27870000 1.62136000e-03
-22.24870000 1.62805000e-03
-22.21870000 1.63478000e-03
-22.18870000 1.64156000e-03
-22.15870000 1.64839000e-03
-22.12870000 1.65527000e-03
-22.09870000 1.66220000e-03
-22.06870000 1.66918000e-03
-22.03870000 1.67621000e-03
-22.00870000 1.68330000e-03
-21.97870000 1.69043000e-03
-21.94870000 1.69762000e-03
-21.91870000 1.70487000e-03
-21.88870000 1.71217000e-03
-21.85870000 1.71952000e-03
-21.82870000 1.72694000e-03
-21.79870000 1.73440000e-03
-21.76870000 1.74193000e-03
-21.73870000 1.74952000e-03
-21.70870000 1.75716000e-03
-21.67870000 1.76487000e-03
-21.64870000 1.77263000e-03
-21.61870000 1.78046000e-03
-21.58870000 1.78835000e-03
-21.55870000 1.79631000e-03
-21.52870000 1.80433000e-03
-21.49870000 1.81242000e-03
-21.46870000 1.82057000e-03
-21.43870000 1.82879000e-03
-21.40870000 1.83708000e-03
-21.37870000 1.84544000e-03
-21.34870000 1.85387000e-03
-21.31870000 1.86238000e-03
-21.28870000 1.87095000e-03
-21.25870000 1.87960000e-03
-21.22870000 1.88833000e-03
-21.19870000 1.89713000e-03
-21.16870000 1.90601000e-03
-21.13870000 1.91497000e-03
-21.10870000 1.92401000e-03
-21.07870000 1.93314000e-03
-21.04870000 1.94234000e-03
-21.01870000 1.95163000e-03
-20.98870000 1.96101000e-03
-20.95870000 1.97048000e-03
-20.92870000 1.98003000e-03
-20.89870000 1.98968000e-03
-20.86870000 1.99942000e-03
-20.83870000 2.00925000e-03
-20.80870000 2.01919000e-03
-20.77870000 2.02922000e-03
-20.74870000 2.03935000e-03
-20.71870000 2.04958000e-03
-20.68870000 2.05992000e-03
-20.65870000 2.07037000e-03
-20.62870000 2.08093000e-03
-20.59870000 2.09160000e-03
-20.56870000 2.10239000e-03
-20.53870000 2.11329000e-03
-20.50870000 2.12432000e-03
-20.47870000 2.13547000e-03
-20.44870000 2.14676000e-03
-20.41870000 2.15817000e-03
-20.38870000 2.16972000e-03
-20.35870000 2.18141000e-03
-20.32870000 2.19325000e-03
-20.29870000 2.20524000e-03
-20.26870000 2.21739000e-03
-20.23870000 2.22969000e-03
-20.20870000 2.24217000e-03
-20.17870000 2.25482000e-03
-20.14870000 2.26766000e-03
-20.11870000 2.28070000e-03
-20.07760000 2.29888000e-03
-20.04760000 2.31241000e-03
-20.01760000 2.32618000e-03
-19.98760000 2.34020000e-03
-19.95760000 2.35448000e-03
-19.92760000 2.36905000e-03
-19.89760000 2.38392000e-03
-19.86760000 2.39914000e-03
-19.83760000 2.41472000e-03
-19.80760000 2.43071000e-03
-19.77760000 2.44715000e-03
-19.74760000 2.46411000e-03
-19.71760000 2.48164000e-03
-19.68760000 2.49984000e-03
-19.65760000 2.51880000e-03
-19.62760000 2.53868000e-03
-19.59760000 2.55964000e-03
-19.56760000 2.58192000e-03
-19.53760000 2.60582000e-03
-19.50760000 2.63176000e-03
-19.47760000 2.66033000e-03
-19.44760000 2.69236000e-03
-19.41760000 2.72907000e-03
-19.38760000 2.77233000e-03
-19.35760000 2.82505000e-03
-19.32760000 2.89207000e-03
-19.29760000 2.98175000e-03
-19.26760000 3.10957000e-03
-19.23760000 3.30628000e-03
-19.20760000 3.63802000e-03
-19.17760000 4.25541000e-03
-19.14760000 5.46250000e-03
-19.11760000 7.20530000e-03
-19.08760000 7.13050000e-03
-19.05760000 5.43323000e-03
-19.02760000 4.33562000e-03
-18.99760000 3.80495000e-03
-18.96760000 3.54856000e-03
-18.93760000 3.42642000e-03
-18.90760000 3.37916000e-03
-18.87760000 3.38253000e-03
-18.84760000 3.43027000e-03
-18.81760000 3.53001000e-03
-18.78760000 3.70811000e-03
-18.75760000 4.02823000e-03
-18.72760000 4.63744000e-03
-18.69760000 5.79931000e-03
-18.66760000 7.27656000e-03
-18.63760000 7.67169000e-03
-18.60760000 6.78288000e-03
-18.57760000 5.35095000e-03
-18.54760000 4.48609000e-03
-18.51760000 4.06235000e-03
-18.48760000 3.85534000e-03
-18.45760000 3.76002000e-03
-18.42760000 3.73368000e-03
-18.39760000 3.76518000e-03
-18.36760000 3.86850000e-03
-18.33760000 4.07984000e-03
-18.30760000 4.37791000e-03
-18.27760000 4.49974000e-03
-18.24760000 4.50530000e-03
-18.21760000 4.70789000e-03
-18.18760000 4.77761000e-03
-18.15760000 4.74127000e-03
-18.12760000 5.05551000e-03
-18.09760000 5.80632000e-03
-18.06760000 6.10223000e-03
-18.03760000 5.37255000e-03
-18.00760000 4.82902000e-03
-17.97760000 4.65669000e-03
-17.94760000 4.64130000e-03
-17.91760000 4.56602000e-03
-17.88760000 4.54924000e-03
-17.85760000 4.67228000e-03
-17.82760000 4.98336000e-03
-17.79760000 5.60360000e-03
-17.75650000 6.47492000e-03
-17.72650000 6.07041000e-03
-17.69650000 5.67276000e-03
-17.66650000 5.56717000e-03
-17.63650000 5.76023000e-03
-17.60650000 6.31856000e-03
-17.57650000 7.49119000e-03
-17.54650000 9.76587000e-03
-17.51650000 1.23074000e-02
-17.48650000 1.12489000e-02
-17.45650000 9.05711000e-03
-17.42650000 8.16094000e-03
-17.39650000 8.33160000e-03
-17.36650000 9.52808000e-03
-17.33650000 1.23542000e-02
-17.30650000 1.79713000e-02
-17.27650000 2.35229000e-02
-17.24650000 2.00159000e-02
-17.21650000 1.49966000e-02
-17.18650000 1.33379000e-02
-17.15650000 1.21198000e-02
-17.12650000 9.83739000e-03
-17.09650000 8.39701000e-03
-17.06650000 7.85289000e-03
-17.03650000 7.94764000e-03
-17.00650000 8.75210000e-03
-16.97650000 1.07408000e-02
-16.94650000 1.41662000e-02
-16.91650000 1.50302000e-02
-16.88650000 1.17297000e-02
-16.85650000 9.30609000e-03
-16.82650000 8.08789000e-03
-16.79650000 7.54292000e-03
-16.76650000 7.50908000e-03
-16.73650000 8.01426000e-03
-16.70650000 9.20280000e-03
-16.67650000 1.00284000e-02
-16.64650000 9.03622000e-03
-16.61650000 8.17560000e-03
-16.58650000 8.04510000e-03
-16.55650000 8.42405000e-03
-16.52650000 8.40544000e-03
-16.49650000 7.64854000e-03
-16.46650000 7.12890000e-03
-16.43650000 6.90461000e-03
-16.40650000 6.84401000e-03
-16.37650000 6.89386000e-03
-16.34650000 7.05601000e-03
-16.31650000 7.27603000e-03
-16.28650000 7.32158000e-03
-16.25650000 7.31173000e-03
-16.22650000 7.37493000e-03
-16.19650000 7.44543000e-03
-16.16650000 7.49473000e-03
-16.13650000 7.66713000e-03
-16.10650000 7.89084000e-03
-16.07650000 7.86043000e-03
-16.04650000 7.76642000e-03
-16.01650000 7.76581000e-03
-15.98650000 7.82561000e-03
-15.95650000 7.91698000e-03
-15.92650000 8.02713000e-03
-15.89650000 8.15078000e-03
-15.86650000 8.28430000e-03
-15.83650000 8.42197000e-03
-15.80650000 8.56573000e-03
-15.77650000 8.71807000e-03
-15.74650000 8.87856000e-03
-15.71650000 9.04688000e-03
-15.68650000 9.22309000e-03
-15.65650000 9.40736000e-03
-15.62650000 9.59988000e-03
-15.59650000 9.80125000e-03
-15.56650000 1.00121000e-02
-15.53650000 1.02332000e-02
-15.50650000 1.04654000e-02
-15.47650000 1.07090000e-02
-15.43540000 1.10602000e-02
-15.40540000 1.13322000e-02
-15.37540000 1.16194000e-02
-15.34540000 1.19235000e-02
-15.31540000 1.22462000e-02
-15.28540000 1.25897000e-02
-15.25540000 1.29573000e-02
-15.22540000 1.33535000e-02
-15.19540000 1.37851000e-02
-15.16540000 1.42628000e-02
-15.13540000 1.48043000e-02
-15.10540000 1.54463000e-02
-15.07540000 1.62666000e-02
-15.04540000 1.74253000e-02
-15.01540000 1.90957000e-02
-14.98540000 2.09741000e-02
-14.95540000 2.16559000e-02
-14.92540000 2.08513000e-02
-14.89540000 2.05219000e-02
-14.86540000 2.08008000e-02
-14.83540000 2.14297000e-02
-14.80540000 2.22862000e-02
-14.77540000 2.33053000e-02
-14.74540000 2.44496000e-02
-14.71540000 2.57709000e-02
-14.68540000 2.73139000e-02
-14.65540000 2.91309000e-02
-14.62540000 3.12873000e-02
-14.59540000 3.37251000e-02
-14.56540000 3.64638000e-02
-14.53540000 3.98535000e-02
-14.50540000 4.41638000e-02
-14.47540000 4.97539000e-02
-14.44540000 5.72470000e-02
-14.41540000 6.77568000e-02
-14.38540000 8.33808000e-02
-14.35540000 1.08240000e-01
-14.32540000 1.50325000e-01
-14.29540000 2.28182000e-01
-14.26540000 3.79693000e-01
-14.23540000 5.70689000e-01
-14.20540000 5.13070000e-01
-14.17540000 3.24070000e-01
-14.14540000 2.14629000e-01
-14.11540000 1.64780000e-01
-14.08540000 1.44325000e-01
-14.05540000 1.39708000e-01
-14.02540000 1.46425000e-01
-13.99540000 1.64288000e-01
-13.96540000 1.96524000e-01
-13.93540000 2.51743000e-01
-13.90540000 3.49628000e-01
-13.87540000 5.35389000e-01
-13.84540000 9.02415000e-01
-13.81540000 1.47074000e+00
-13.78540000 1.60133000e+00
-13.75540000 1.06433000e+00
-13.72540000 6.42615000e-01
-13.69540000 4.34301000e-01
-13.66540000 3.36010000e-01
-13.63540000 2.92542000e-01
-13.60540000 2.80982000e-01
-13.57540000 2.93731000e-01
-13.54540000 3.32661000e-01
-13.51540000 4.10499000e-01
-13.48540000 5.58684000e-01
-13.45540000 8.23671000e-01
-13.42540000 1.09793000e+00
-13.39540000 1.19816000e+00
-13.36540000 1.52367000e+00
-13.33540000 2.27585000e+00
-13.30540000 2.59572000e+00
-13.27540000 1.91202000e+00
-13.24540000 1.44655000e+00
-13.21540000 1.43164000e+00
-13.18540000 1.75581000e+00
-13.15540000 2.42093000e+00
-13.11430000 3.77089000e+00
-13.08430000 3.08998000e+00
-13.05430000 1.99594000e+00
-13.02430000 1.49037000e+00
-12.99430000 1.44723000e+00
-12.96430000 1.83202000e+00
-12.93430000 2.56484000e+00
-12.90430000 2.70176000e+00
-12.87430000 2.01276000e+00
-12.84430000 1.53580000e+00
-12.81430000 1.50449000e+00
-12.78430000 1.92706000e+00
-12.75430000 3.02385000e+00
-12.72430000 4.62636000e+00
-12.69430000 4.33861000e+00
-12.66430000 2.62759000e+00
-12.63430000 1.54971000e+00
-12.60430000 1.02544000e+00
-12.57430000 7.86553000e-01
-12.54430000 7.22967000e-01
-12.51430000 7.68147000e-01
-12.48430000 6.77299000e-01
-12.45430000 4.67220000e-01
-12.42430000 3.28177000e-01
-12.39430000 2.49963000e-01
-12.36430000 2.03863000e-01
-12.33430000 1.76200000e-01
-12.30430000 1.55971000e-01
-12.27430000 1.33867000e-01
-12.24430000 1.15742000e-01
-12.21430000 1.02723000e-01
-12.18430000 9.31137000e-02
-12.15430000 8.58874000e-02
-12.12430000 8.05808000e-02
-12.09430000 7.70999000e-02
-12.06430000 7.57002000e-02
-12.03430000 7.69136000e-02
-12.00430000 8.17698000e-02
-11.97430000 9.37085000e-02
-11.94430000 1.20004000e-01
-11.91430000 1.62990000e-01
-11.88430000 1.73974000e-01
-11.85430000 1.46546000e-01
-11.82430000 1.41537000e-01
-11.79430000 1.38836000e-01
-11.76430000 1.25613000e-01
-11.73430000 1.36314000e-01
-11.70430000 1.54975000e-01
-11.67430000 1.24985000e-01
-11.64430000 8.55733000e-02
-11.61430000 6.34019000e-02
-11.58430000 5.19719000e-02
-11.55430000 4.60692000e-02
-11.52430000 4.36370000e-02
-11.49430000 4.42033000e-02
-11.46430000 4.88583000e-02
-11.43430000 5.90101000e-02
-11.40430000 6.56775000e-02
-11.37430000 6.53849000e-02
-11.34430000 5.84830000e-02
-11.31430000 4.51450000e-02
-11.28430000 3.62514000e-02
-11.25430000 3.12404000e-02
-11.22430000 2.87122000e-02
-11.19430000 2.75183000e-02
-11.16430000 2.62409000e-02
-11.13430000 2.55574000e-02
-11.10430000 2.55353000e-02
-11.07430000 2.44892000e-02
-11.04430000 2.34847000e-02
-11.01430000 2.31532000e-02
-10.98430000 2.29242000e-02
-10.95430000 2.21965000e-02
-10.92430000 2.18907000e-02
-10.89430000 2.26420000e-02
-10.86430000 2.42826000e-02
-10.83430000 2.57363000e-02
-10.79320000 3.11158000e-02
-10.76320000 3.87318000e-02
-10.73320000 3.78741000e-02
-10.70320000 2.97302000e-02
-10.67320000 2.48019000e-02
-10.64320000 2.30793000e-02
-10.61320000 2.32438000e-02
-10.58320000 2.35042000e-02
-10.55320000 2.31193000e-02
-10.52320000 2.14561000e-02
-10.49320000 2.04482000e-02
-10.46320000 2.06767000e-02
-10.43320000 2.20027000e-02
-10.40320000 2.40400000e-02
-10.37320000 2.73102000e-02
-10.34320000 3.47398000e-02
-10.31320000 4.96303000e-02
-10.28320000 6.39113000e-02
-10.25320000 5.28609000e-02
-10.22320000 3.66077000e-02
-10.19320000 2.79768000e-02
-10.16320000 2.41054000e-02
-10.13320000 2.31137000e-02
-10.10320000 2.43576000e-02
-10.07320000 2.51525000e-02
-10.04320000 2.32008000e-02
-10.01320000 2.25976000e-02
-9.98321000 2.46895000e-02
-9.95321000 2.64629000e-02
-9.92321000 2.33445000e-02
-9.89321000 2.03164000e-02
-9.86321000 1.90697000e-02
-9.83321000 1.84158000e-02
-9.80321000 1.81194000e-02
-9.77321000 1.79698000e-02
-9.74321000 1.79276000e-02
-9.71321000 1.86317000e-02
-9.68321000 2.05440000e-02
-9.65321000 2.41990000e-02
-9.62321000 2.80909000e-02
-9.59321000 2.98157000e-02
-9.56321000 2.80235000e-02
-9.53321000 2.71680000e-02
-9.50321000 2.96366000e-02
-9.47321000 2.93183000e-02
-9.44321000 2.63747000e-02
-9.41321000 2.39829000e-02
-9.38321000 2.09490000e-02
-9.35321000 1.89820000e-02
-9.32321000 1.80573000e-02
-9.29321000 1.78479000e-02
-9.26321000 1.81250000e-02
-9.23321000 1.80904000e-02
-9.20321000 1.76430000e-02
-9.17321000 1.75063000e-02
-9.14321000 1.77390000e-02
-9.11321000 1.83287000e-02
-9.08321000 1.94894000e-02
-9.05321000 2.16059000e-02
-9.02321000 2.41849000e-02
-8.99321000 2.48293000e-02
-8.96321000 2.23610000e-02
-8.93321000 2.04838000e-02
-8.90321000 1.97607000e-02
-8.87321000 1.96081000e-02
-8.84321000 1.96045000e-02
-8.81321000 1.98090000e-02
-8.78321000 2.02933000e-02
-8.75321000 2.11222000e-02
-8.72321000 2.24570000e-02
-8.69321000 2.47247000e-02
-8.66321000 2.85582000e-02
-8.63321000 3.25570000e-02
-8.60321000 3.10174000e-02
-8.57321000 2.76554000e-02
-8.54321000 2.62684000e-02
-8.51321000 2.63820000e-02
-8.47211000 2.85155000e-02
-8.44211000 3.20175000e-02
-8.41211000 3.61431000e-02
-8.38211000 3.74382000e-02
-8.35211000 3.99915000e-02
-8.32211000 4.71682000e-02
-8.29211000 5.63213000e-02
-8.26211000 5.34554000e-02
-8.23211000 4.65781000e-02
-8.20211000 4.49912000e-02
-8.17211000 4.39334000e-02
-8.14211000 4.15603000e-02
-8.11211000 4.12413000e-02
-8.08211000 4.29480000e-02
-8.05211000 4.61042000e-02
-8.02211000 5.17453000e-02
-7.99211000 6.04957000e-02
-7.96211000 6.57360000e-02
-7.93211000 6.62686000e-02
-7.90211000 7.07365000e-02
-7.87211000 8.10199000e-02
-7.84211000 9.90744000e-02
-7.81211000 1.29995000e-01
-7.78211000 1.83261000e-01
-7.75211000 2.60489000e-01
-7.72211000 3.40105000e-01
-7.69211000 4.86871000e-01
-7.66211000 6.66035000e-01
-7.63211000 6.53741000e-01
-7.60211000 5.34762000e-01
-7.57211000 3.64518000e-01
-7.54211000 2.41236000e-01
-7.51211000 1.75712000e-01
-7.48211000 1.43772000e-01
-7.45211000 1.29851000e-01
-7.42211000 1.27780000e-01
-7.39211000 1.36622000e-01
-7.36211000 1.60357000e-01
-7.33211000 2.09607000e-01
-7.30211000 2.85803000e-01
-7.27211000 3.22029000e-01
-7.24211000 3.26036000e-01
-7.21211000 3.82638000e-01
-7.18211000 4.44702000e-01
-7.15211000 4.36833000e-01
-7.12211000 4.59649000e-01
-7.09211000 5.23616000e-01
-7.06211000 6.49861000e-01
-7.03211000 6.92615000e-01
-7.00211000 7.46856000e-01
-6.97211000 1.03750000e+00
-6.94211000 1.67469000e+00
-6.91211000 2.13537000e+00
-6.88211000 1.55777000e+00
-6.85211000 9.26031000e-01
-6.82211000 6.05964000e-01
-6.79211000 4.66261000e-01
-6.76211000 4.25252000e-01
-6.73211000 4.57026000e-01
-6.70211000 4.65194000e-01
-6.67211000 3.97983000e-01
-6.64211000 3.87485000e-01
-6.61211000 4.51831000e-01
-6.58211000 4.50650000e-01
-6.55211000 3.48145000e-01
-6.52211000 2.83506000e-01
-6.49211000 2.46286000e-01
-6.46211000 2.26400000e-01
-6.43211000 2.35406000e-01
-6.40211000 2.81298000e-01
-6.37211000 3.70416000e-01
-6.34211000 4.16742000e-01
-6.31211000 3.72740000e-01
-6.28211000 3.49219000e-01
-6.25211000 3.54846000e-01
-6.22211000 3.98055000e-01
-6.19211000 4.80396000e-01
-6.15102000 6.16704000e-01
-6.12102000 7.20425000e-01
-6.09102000 6.42395000e-01
-6.06102000 5.69236000e-01
-6.03102000 5.83795000e-01
-6.00102000 6.78529000e-01
-5.97102000 8.92287000e-01
-5.94102000 1.34017000e+00
-5.91102000 2.17112000e+00
-5.88102000 2.86319000e+00
-5.85102000 2.37453000e+00
-5.82102000 1.87347000e+00
-5.79102000 1.69834000e+00
-5.76102000 1.66163000e+00
-5.73102000 1.97688000e+00
-5.70102000 2.76599000e+00
-5.67102000 3.47038000e+00
-5.64102000 3.59375000e+00
-5.61102000 3.73593000e+00
-5.58102000 4.63567000e+00
-5.55102000 5.04281000e+00
-5.52102000 3.63612000e+00
-5.49102000 2.37751000e+00
-5.46102000 1.71748000e+00
-5.43102000 1.32758000e+00
-5.40102000 1.07711000e+00
-5.37102000 9.82671000e-01
-5.34102000 1.03409000e+00
-5.31102000 1.26056000e+00
-5.28102000 1.57903000e+00
-5.25102000 1.91682000e+00
-5.22102000 2.52457000e+00
-5.19102000 3.22954000e+00
-5.16102000 3.37386000e+00
-5.13102000 2.97474000e+00
-5.10102000 3.13318000e+00
-5.07102000 3.19417000e+00
-5.04102000 2.64289000e+00
-5.01102000 2.52092000e+00
-4.98102000 2.73078000e+00
-4.95102000 2.43076000e+00
-4.92102000 2.12068000e+00
-4.89102000 1.96195000e+00
-4.86102000 1.92611000e+00
-4.83102000 2.06090000e+00
-4.80102000 1.70410000e+00
-4.77102000 1.34841000e+00
-4.74102000 1.19423000e+00
-4.71102000 9.34766000e-01
-4.68102000 7.32405000e-01
-4.65102000 6.70688000e-01
-4.62102000 7.45424000e-01
-4.59102000 9.48207000e-01
-4.56102000 1.02369000e+00
-4.53102000 8.26772000e-01
-4.50102000 7.26879000e-01
-4.47102000 7.77783000e-01
-4.44102000 8.00406000e-01
-4.41102000 7.86088000e-01
-4.38102000 9.02763000e-01
-4.35102000 9.99051000e-01
-4.32102000 1.02104000e+00
-4.29102000 1.16131000e+00
-4.26102000 1.37670000e+00
-4.23102000 1.49521000e+00
-4.20102000 1.20343000e+00
-4.17102000 1.03635000e+00
-4.14102000 1.11910000e+00
-4.11102000 1.23596000e+00
-4.08102000 1.12440000e+00
-4.05102000 8.25841000e-01
-4.02102000 6.37736000e-01
-3.99102000 5.78022000e-01
-3.96102000 6.10989000e-01
-3.93102000 7.34869000e-01
-3.90102000 9.60176000e-01
-3.87102000 1.32394000e+00
-3.82992000 1.92349000e+00
-3.79992000 2.13433000e+00
-3.76992000 2.34563000e+00
-3.73992000 1.92489000e+00
-3.70992000 1.47331000e+00
-3.67992000 1.42451000e+00
-3.64992000 1.80920000e+00
-3.61992000 2.75646000e+00
-3.58992000 3.70843000e+00
-3.55992000 3.07169000e+00
-3.52992000 2.06771000e+00
-3.49992000 1.62112000e+00
-3.46992000 1.56180000e+00
-3.43992000 1.35407000e+00
-3.40992000 1.00721000e+00
-3.37992000 8.30266000e-01
-3.34992000 8.19709000e-01
-3.31992000 9.80197000e-01
-3.28992000 1.38336000e+00
-3.25992000 1.81574000e+00
-3.22992000 1.52321000e+00
-3.19992000 1.04595000e+00
-3.16992000 8.04664000e-01
-3.13992000 7.21241000e-01
-3.10992000 7.34008000e-01
-3.07992000 8.38573000e-01
-3.04992000 1.07879000e+00
-3.01992000 1.55463000e+00
-2.98992000 2.29421000e+00
-2.95992000 3.14280000e+00
-2.92992000 3.42735000e+00
-2.89992000 2.53330000e+00
-2.86992000 1.83672000e+00
-2.83992000 1.59149000e+00
-2.80992000 1.62910000e+00
-2.77992000 1.91580000e+00
-2.74992000 2.16664000e+00
-2.71992000 2.31476000e+00
-2.68992000 2.94876000e+00
-2.65992000 3.99218000e+00
-2.62992000 4.35148000e+00
-2.59992000 4.92457000e+00
-2.56992000 7.17195000e+00
-2.53992000 1.04411000e+01
-2.50992000 9.49634000e+00
-2.47992000 5.82021000e+00
-2.44992000 3.58517000e+00
-2.41992000 2.51767000e+00
-2.38992000 2.02256000e+00
-2.35992000 1.80335000e+00
-2.32992000 1.75912000e+00
-2.29992000 1.87195000e+00
-2.26992000 2.19090000e+00
-2.23992000 2.82974000e+00
-2.20992000 4.03127000e+00
-2.17992000 6.08235000e+00
-2.14992000 8.71170000e+00
-2.11992000 1.15778000e+01
-2.08992000 1.62846000e+01
-2.05992000 2.09380000e+01
-2.02992000 1.67255000e+01
-1.99992000 1.03388000e+01
-1.96992000 6.23015000e+00
-1.93992000 3.99939000e+00
-1.90992000 2.79577000e+00
-1.87992000 2.06646000e+00
-1.84992000 1.59218000e+00
-1.81992000 1.28679000e+00
-1.78992000 1.09274000e+00
-1.75992000 9.91892000e-01
-1.72992000 9.28591000e-01
-1.69992000 9.01106000e-01
-1.66992000 9.51467000e-01
-1.63992000 1.08373000e+00
-1.60992000 1.21768000e+00
-1.57992000 1.06424000e+00
-1.54992000 8.40075000e-01
-1.50883000 7.34346000e-01
-1.47883000 8.11463000e-01
-1.44883000 9.62966000e-01
-1.41883000 1.15688000e+00
-1.38883000 1.07395000e+00
-1.35883000 8.50526000e-01
-1.32883000 7.64650000e-01
-1.29883000 6.76083000e-01
-1.26883000 6.04296000e-01
-1.23883000 6.50190000e-01
-1.20883000 7.18249000e-01
-1.17883000 6.40682000e-01
-1.14883000 5.45459000e-01
-1.11883000 4.72626000e-01
-1.08883000 3.96710000e-01
-1.05883000 3.18014000e-01
-1.02883000 2.60783000e-01
-0.99882600 2.22962000e-01
-0.96882600 1.91410000e-01
-0.93882600 1.71230000e-01
-0.90882600 1.60198000e-01
-0.87882600 1.55537000e-01
-0.84882600 1.50121000e-01
-0.81882600 1.40850000e-01
-0.78882600 1.34624000e-01
-0.75882600 1.32414000e-01
-0.72882600 1.34969000e-01
-0.69882600 1.42868000e-01
-0.66882600 1.50071000e-01
-0.63882600 1.58666000e-01
